1636752663.00
64.000000
-0.00
-0.00
-0.00
-0.00
-0.00
-0.00
-0.00
-0.00
-0.00
-0.00
0.00
0.01
0.01
-0.00
-0.03
-0.05
-0.05
0.00
0.13
0.36
0.66
1.01
1.37
1.72
2.06
2.40
2.79
3.24
3.80
4.42
5.06
5.66
6.20
6.68
7.15
7.68
8.31
9.14
10.09
11.04
11.88
12.56
13.14
13.76
14.65
15.96
17.91
20.32
22.90
25.38
27.58
29.58
31.68
34.32
37.81
42.54
48.14
54.11
59.85
65.01
69.64
74.18
79.32
85.57
93.47
102.55
112.03
121.05
129.04
136.01
142.54
149.92
156.85
165.60
176.78
190.54
205.70
219.33
227.05
224.15
207.18
175.27
130.82
77.76
20.52
-37.59
-95.06
-151.74
-207.91
-263.42
-317.47
-368.51
-415.39
-457.17
-493.12
-522.40
-543.86
-556.07
-557.58
-547.39
-525.08
-491.44
-448.14
-397.52
-342.26
-285.00
-228.04
-173.12
-121.43
-73.56
-29.91
9.27
43.69
73.08
97.22
116.08
129.82
138.68
142.85
142.60
138.72
132.98
128.17
127.41
133.03
145.40
162.50
180.66
195.96
205.70
209.16
207.17
201.18
192.26
180.77
166.77
150.63
133.40
116.67
101.90
89.82
80.23
72.26
64.95
57.82
51.23
45.74
41.84
39.33
37.22
34.00
28.30
19.68
8.95
-2.11
-11.48
-17.70
-20.40
-20.12
-17.83
-14.29
-9.86
-4.76
0.50
4.86
7.03
6.08
1.97
-4.21
-10.74
-15.97
-18.97
-19.64
-18.46
-15.89
-12.01
-6.58
0.43
8.25
15.17
19.04
18.20
12.48
3.42
-6.27
-13.86
-17.66
-17.44
-14.07
-8.78
-2.59
3.73
9.42
13.42
14.62
12.38
7.01
-0.14
-7.16
-12.39
-14.88
-14.50
-11.71
-7.19
-1.66
4.04
8.96
12.05
12.51
10.09
5.30
-0.73
-6.61
-11.14
-13.62
-13.94
-12.44
-9.64
-6.07
-2.18
1.63
4.98
7.54
9.06
9.54
9.20
8.47
7.79
7.47
7.56
7.92
8.35
8.63
8.65
8.37
7.81
6.98
5.91
4.69
3.29
1.70
-0.04
-1.88
-3.75
-5.57
-7.25
-8.69
-9.80
-10.47
-10.61
-10.17
-9.23
-8.00
-6.72
-5.65
-4.96
-4.70
-4.76
-5.00
-5.28
-5.47
-5.55
-5.49
-5.31
-5.03
-4.65
-4.16
-3.58
-2.97
-2.40
-1.98
-1.75
-1.69
-1.69
-1.64
-1.46
-1.14
-0.80
-0.54
-0.49
-0.65
-0.98
-1.37
-1.74
-2.02
-2.19
-2.24
-2.21
-2.14
-2.09
-2.15
-2.40
-2.88
-3.53
-4.27
-4.96
-5.50
-5.89
-6.20
-6.56
-7.09
-7.84
-8.72
-9.57
-10.17
-10.33
-9.89
-8.79
-7.10
-4.96
-2.62
-0.35
1.59
3.04
3.99
4.57
4.96
5.35
5.77
6.15
6.30
6.10
5.51
4.69
3.86
3.23
2.92
2.95
3.21
3.62
4.13
4.68
5.21
5.59
5.72
5.52
4.97
4.16
3.22
2.32
1.55
0.99
0.64
0.46
0.34
0.15
-0.24
-0.85
-1.63
-2.43
-3.10
-3.53
-3.69
-3.62
-3.38
-3.04
-2.68
-2.44
-2.49
-2.96
-3.86
-5.02
-6.13
-6.92
-7.24
-7.15
-6.90
-6.76
-6.95
-7.56
-8.56
-9.85
-11.28
-12.61
-13.53
-13.68
-12.78
-10.73
-7.68
-4.04
-0.35
2.86
5.25
6.63
7.05
6.74
5.98
5.08
4.30
3.76
3.51
3.53
3.77
4.17
4.65
5.08
5.35
5.30
4.90
4.20
3.38
2.64
2.14
1.87
1.71
1.43
0.81
-0.30
-1.89
-3.82
-5.88
-7.80
-9.38
-10.53
-11.26
-11.67
-11.87
-11.90
-11.71
-11.20
-10.26
-8.93
-7.35
-5.81
-4.56
-3.72
-3.24
-2.90
-2.40
-1.51
-0.07
1.94
4.43
7.22
10.06
12.69
14.84
16.33
17.11
17.29
17.07
16.68
16.31
16.01
15.74
15.40
14.92
14.26
13.49
12.68
11.96
11.39
11.01
10.86
10.94
11.24
11.67
12.09
12.29
12.08
11.35
10.12
8.53
6.81
5.18
3.81
2.73
1.91
1.28
0.78
0.37
0.03
-0.25
-0.50
-0.75
-1.08
-1.52
-2.13
-2.88
-3.70
-4.49
-5.15
-5.62
-5.92
-6.15
-6.46
-7.01
-7.88
-9.02
-10.25
-11.23
-11.65
-11.23
-9.88
-7.67
-4.86
-1.81
1.13
3.61
5.43
6.48
6.77
6.41
5.59
4.59
3.68
3.10
2.95
3.16
3.57
3.94
4.12
4.04
3.81
3.53
3.34
3.28
3.36
3.52
3.75
3.98
4.16
4.16
3.87
3.19
2.15
0.88
-0.41
-1.56
-2.47
-3.16
-3.68
-4.11
-4.46
-4.72
-4.89
-5.02
-5.19
-5.50
-6.03
-6.82
-7.86
-9.11
-10.42
-11.59
-12.36
-12.48
-11.84
-10.47
-8.54
-6.27
-3.88
-1.51
0.69
2.62
4.16
5.22
5.83
6.02
5.92
5.61
5.14
4.55
3.95
3.44
3.18
3.25
3.58
4.03
4.43
4.65
4.69
4.61
4.55
4.60
4.82
5.19
5.68
6.20
6.69
7.08
7.29
7.29
7.00
6.38
5.39
4.07
2.49
0.85
-0.63
-1.77
-2.49
-2.87
-3.13
-3.55
-4.32
-5.51
-6.99
-8.50
-9.72
-10.37
-10.26
-9.36
-7.75
-5.62
-3.27
-0.98
0.95
2.32
3.10
3.37
3.29
3.03
2.73
2.42
2.12
1.82
1.55
1.39
1.40
1.61
1.97
2.39
2.76
3.00
3.09
3.04
2.89
2.67
2.44
2.20
1.97
1.72
1.38
0.93
0.36
-0.29
-0.93
-1.48
-1.91
-2.24
-2.56
-2.93
-3.37
-3.83
-4.28
-4.72
-5.22
-5.86
-6.71
-7.72
-8.80
-9.78
-10.51
-10.85
-10.67
-9.91
-8.53
-6.57
-4.18
-1.62
0.79
2.75
4.14
4.93
5.25
5.27
5.10
4.78
4.31
3.73
3.11
2.52
2.04
1.70
1.48
1.39
1.45
1.66
2.01
2.39
2.63
2.61
2.27
1.68
0.93
0.15
-0.63
-1.43
-2.26
-3.12
-3.95
-4.70
-5.33
-5.85
-6.30
-6.73
-7.19
-7.74
-8.44
-9.30
-10.29
-11.25
-11.95
-12.09
-11.43
-9.89
-7.55
-4.68
-1.65
1.18
3.58
5.45
6.80
7.70
8.18
8.31
8.14
7.79
7.42
7.19
7.24
7.57
8.08
8.63
9.04
9.22
9.16
8.93
8.66
8.46
8.38
8.38
8.33
8.09
7.58
6.76
5.71
4.55
3.42
2.42
1.59
0.90
0.25
-0.49
-1.46
-2.66
-3.97
-5.19
-6.07
-6.48
-6.45
-6.21
-6.03
-6.22
-6.92
-8.14
-9.72
-11.45
-13.03
-14.18
-14.61
-14.08
-12.46
-9.78
-6.34
-2.60
0.90
3.67
5.46
6.30
6.43
6.21
5.97
5.85
5.84
5.84
5.72
5.48
5.21
5.07
5.21
5.66
6.30
6.94
7.36
7.46
7.27
6.90
6.50
6.14
5.82
5.50
5.12
4.68
4.19
3.72
3.29
2.86
2.41
1.89
1.29
0.68
0.14
-0.24
-0.42
-0.46
-0.50
-0.68
-1.12
-1.84
-2.73
-3.61
-4.27
-4.52
-4.20
-3.18
-1.42
1.05
4.07
7.40
10.73
13.81
16.47
18.72
20.61
22.25
23.67
24.78
25.43
25.46
24.77
23.38
21.43
19.15
16.77
14.50
12.45
10.71
9.29
8.20
7.42
6.94
6.70
6.59
6.51
6.33
5.97
5.42
4.77
4.13
3.67
3.46
3.47
3.63
3.78
3.84
3.77
3.60
3.38
3.15
2.87
2.49
1.98
1.42
0.93
0.69
0.79
1.21
1.82
2.44
2.93
3.28
3.62
4.20
5.37
7.46
10.70
15.11
20.38
25.90
30.87
34.49
36.21
35.84
33.49
29.52
24.25
17.96
10.77
2.81
-5.73
-14.53
-23.17
-31.21
-38.23
-44.01
-48.49
-51.79
-54.15
-55.84
-57.00
-57.67
-57.74
-57.09
-55.65
-53.51
-50.85
-47.99
-45.22
-42.85
-41.02
-39.69
-38.58
-37.18
-34.90
-31.22
-25.93
-19.15
-11.35
-3.11
4.96
12.45
19.07
24.66
29.15
32.54
34.94
36.63
37.92
39.10
40.30
41.45
42.33
42.69
42.43
41.66
40.67
39.78
39.24
39.04
38.94
38.49
37.17
34.52
30.32
24.65
17.93
10.82
4.07
-1.69
-6.09
-9.09
-10.87
-11.75
-12.04
-11.96
-11.66
-11.20
-10.65
-10.06
-9.45
-8.83
-8.13
-7.30
-6.29
-5.15
-4.00
-3.04
-2.45
-2.29
-2.49
-2.84
-3.09
-3.05
-2.68
-2.10
-1.52
-1.23
-1.44
-2.29
-3.81
-5.93
-8.57
-11.61
-14.96
-18.50
-22.15
-25.84
-29.48
-33.03
-36.44
-39.68
-42.68
-45.39
-47.78
-49.84
-51.63
-53.21
-54.65
-55.99
-57.23
-58.39
-59.47
-60.48
-61.37
-62.08
-62.52
-62.63
-62.46
-62.13
-61.75
-61.32
-60.61
-59.22
-56.67
-52.60
-46.94
-39.92
-31.96
-23.59
-15.20
-7.08
0.65
7.86
14.40
20.08
24.68
28.08
30.28
31.50
32.02
32.12
32.07
32.00
32.01
32.16
32.52
33.08
33.77
34.44
34.93
35.10
34.93
34.48
33.88
33.23
32.54
31.75
30.76
29.49
27.97
26.24
24.36
22.37
20.26
18.05
15.81
13.66
11.80
10.39
9.54
9.22
9.33
9.69
10.11
10.37
10.26
9.59
8.24
6.29
3.95
1.57
-0.57
-2.29
-3.57
-4.46
-4.99
-5.06
-4.55
-3.36
-1.56
0.63
2.92
5.09
7.06
8.89
10.64
12.36
14.00
15.50
16.84
18.09
19.38
20.79
22.31
23.73
24.78
25.15
24.70
23.48
21.72
19.74
17.78
15.90
13.91
11.48
8.33
4.36
-0.25
-5.07
-9.58
-13.37
-16.19
-18.03
-19.01
-19.24
-18.82
-17.76
-16.05
-13.75
-11.04
-8.14
-5.29
-2.62
-0.13
2.24
4.57
6.86
8.97
10.73
12.01
12.80
13.22
13.48
13.74
14.05
14.31
14.31
13.89
12.98
11.67
10.20
8.83
7.79
7.20
7.06
7.30
7.81
8.51
9.36
10.36
11.56
13.00
14.67
16.58
18.70
21.09
23.80
26.86
30.19
33.50
36.42
38.58
39.79
40.16
40.05
39.84
39.77
39.72
39.31
38.00
35.35
31.11
25.28
18.05
9.80
1.02
-7.65
-15.50
-21.85
-26.29
-28.82
-29.90
-30.33
-30.91
-32.19
-34.26
-36.87
-39.58
-42.05
-44.11
-45.75
-46.97
-47.69
-47.71
-46.85
-45.02
-42.31
-38.95
-35.28
-31.60
-28.19
-25.25
-22.92
-21.23
-20.13
-19.43
-18.91
-18.27
-17.26
-15.70
-13.52
-10.87
-8.04
-5.47
-3.55
-2.53
-2.38
-2.80
-3.38
-3.73
-3.65
-3.22
-2.69
-2.36
-2.43
-2.94
-3.77
-4.78
-5.84
-6.89
-7.84
-8.57
-8.91
-8.75
-8.09
-7.15
-6.28
-5.82
-5.98
-6.74
-7.90
-9.17
-10.29
-11.12
-11.66
-12.01
-12.31
-12.67
-13.12
-13.59
-13.97
-14.14
-14.00
-13.50
-12.61
-11.25
-9.37
-6.97
-4.10
-0.96
2.21
5.13
7.60
9.52
10.90
11.79
12.28
12.45
12.39
12.17
11.84
11.41
10.86
10.15
9.28
8.32
7.40
6.68
6.23
6.00
5.77
5.23
4.13
2.36
0.04
-2.58
-5.20
-7.56
-9.49
-10.84
-11.43
-11.09
-9.71
-7.41
-4.51
-1.49
1.14
3.06
4.16
4.57
4.52
4.23
3.84
3.44
3.10
2.92
3.00
3.41
4.06
4.77
5.28
5.43
5.21
4.80
4.52
4.62
5.19
6.09
7.02
7.67
7.91
7.83
7.72
7.91
8.63
9.85
11.32
12.64
13.45
13.55
12.98
12.06
11.22
10.89
11.37
12.78
14.96
17.54
19.88
21.15
20.48
17.34
11.76
4.57
-2.88
-9.20
-13.49
-15.76
-16.81
-17.72
-19.25
-21.40
-23.55
-24.78
-24.51
-22.74
-20.01
-17.06
-14.42
-12.24
-10.30
-8.32
-6.15
-3.91
-1.87
-0.30
0.78
1.57
2.36
3.39
4.67
6.02
7.13
7.80
8.00
7.91
7.84
8.10
8.87
10.15
11.72
13.24
14.29
14.55
13.84
12.28
10.20
8.08
6.34
5.21
4.65
4.44
4.26
3.83
3.01
1.80
0.37
-1.05
-2.18
-2.77
-2.72
-2.08
-1.03
0.19
1.36
2.39
3.27
3.97
4.44
4.56
4.24
3.44
2.27
0.91
-0.44
-1.64
-2.65
-3.56
-4.51
-5.60
-6.83
-8.09
-9.20
-10.05
-10.62
-11.00
-11.36
-11.81
-12.30
-12.67
-12.72
-12.32
-11.50
-10.37
-9.04
-7.57
-5.94
-4.20
-2.43
-0.87
0.26
0.80
0.82
0.57
0.34
0.38
0.75
1.35
2.00
2.51
2.82
2.91
2.82
2.53
2.00
1.19
0.12
-1.08
-2.23
-3.15
-3.78
-4.18
-4.52
-5.02
-5.84
-7.05
-8.58
-10.24
-11.80
-13.05
-13.93
-14.60
-15.35
-16.56
-18.46
-21.07
-24.11
-27.06
-29.32
-30.34
-29.83
-27.74
-24.31
-19.97
-15.21
-10.52
-6.29
-2.72
0.15
2.49
4.61
6.86
9.52
12.72
16.40
20.30
24.08
27.37
29.89
31.42
31.82
31.00
29.01
26.03
22.50
18.95
15.88
13.65
12.30
11.65
11.43
11.41
11.49
11.68
12.00
12.37
12.62
12.51
11.85
10.57
8.79
6.76
4.82
3.25
2.24
1.78
1.71
1.74
1.58
1.03
0.03
-1.29
-2.71
-4.00
-4.95
-5.42
-5.35
-4.75
-3.67
-2.21
-0.56
1.07
2.42
3.37
3.87
4.03
4.06
4.12
4.32
4.63
4.90
4.96
4.68
4.05
3.22
2.41
1.88
1.77
2.07
2.64
3.23
3.58
3.56
3.10
2.26
1.12
-0.24
-1.71
-3.14
-4.36
-5.19
-5.62
-5.79
-5.97
-6.49
-7.52
-8.96
-10.48
-11.58
-11.85
-11.05
-9.25
-6.71
-3.81
-0.91
1.68
3.78
5.27
6.13
6.40
6.16
5.57
4.78
3.99
3.38
3.07
3.09
3.38
3.77
4.09
4.18
3.98
3.54
2.99
2.45
2.03
1.77
1.62
1.46
1.14
0.51
-0.49
-1.79
-3.25
-4.66
-5.89
-6.89
-7.73
-8.53
-9.41
-10.39
-11.37
-12.19
-12.64
-12.57
-11.87
-10.54
-8.65
-6.30
-3.67
-0.94
1.73
4.15
6.18
7.70
8.65
8.99
8.78
8.14
7.28
6.41
5.75
5.43
5.51
5.92
6.53
7.17
7.67
7.92
7.85
7.47
6.88
6.23
5.67
5.33
5.22
5.27
5.32
5.19
4.78
4.07
3.17
2.22
1.35
0.64
0.05
-0.50
-1.07
-1.68
-2.28
-2.77
-3.10
-3.27
-3.41
-3.68
-4.23
-5.11
-6.26
-7.56
-8.88
-10.14
-11.32
-12.49
-13.67
-14.90
-16.19
-17.57
-19.01
-20.45
-21.67
-22.35
-22.10
-20.61
-17.79
-13.86
-9.27
-4.57
-0.25
3.36
6.18
8.23
9.65
10.56
11.08
11.25
11.12
10.71
10.08
9.38
8.79
8.51
8.67
9.23
10.07
10.99
11.78
12.34
12.62
12.62
12.32
11.67
10.61
9.14
7.33
5.41
3.66
2.34
1.60
1.34
1.27
1.00
0.19
-1.34
-3.45
-5.84
-8.08
-9.82
-10.93
-11.48
-11.76
-12.13
-12.98
-14.58
-17.01
-20.17
-23.69
-27.05
-29.60
-30.80
-30.29
-28.02
-24.29
-19.64
-14.73
-10.16
-6.27
-3.08
-0.39
2.11
4.63
7.26
9.84
12.18
14.14
15.70
16.97
18.09
19.11
19.97
20.57
20.84
20.80
20.54
20.14
19.63
18.95
18.01
16.72
15.00
12.86
10.37
7.70
5.10
2.87
1.30
0.54
0.53
1.02
1.64
2.07
2.12
1.74
1.00
-0.01
-1.21
-2.52
-3.86
-5.15
-6.29
-7.24
-8.05
-8.85
-9.86
-11.30
-13.30
-15.82
-18.63
-21.30
-23.26
-24.00
-23.12
-20.50
-16.31
-11.00
-5.18
0.48
5.35
8.99
11.17
11.88
11.36
10.04
8.44
7.13
6.54
6.94
8.27
10.21
12.29
14.03
15.17
15.69
15.79
15.77
15.84
16.07
16.37
16.56
16.45
15.91
14.89
13.45
11.72
9.94
8.41
7.35
6.86
6.83
7.01
7.06
6.74
6.00
5.02
4.04
3.30
2.86
2.66
2.55
2.43
2.34
2.38
2.68
3.30
4.14
5.02
5.75
6.24
6.52
6.70
6.85
7.00
7.06
6.88
6.33
5.37
4.12
2.84
1.81
1.26
1.24
1.64
2.20
2.67
2.89
2.85
2.64
2.38
2.13
1.87
1.48
0.89
0.08
-0.88
-1.88
-2.81
-3.65
-4.46
-5.31
-6.26
-7.30
-8.31
-9.13
-9.67
-9.96
-10.10
-10.28
-10.66
-11.28
-12.09
-12.93
-13.58
-13.84
-13.48
-12.33
-10.31
-7.45
-3.95
-0.15
3.53
6.73
9.15
10.71
11.43
11.43
10.85
9.82
8.48
7.02
5.67
4.68
4.23
4.32
4.80
5.36
5.71
5.71
5.41
5.02
4.73
4.60
4.50
4.18
3.39
2.02
0.15
-1.99
-4.11
-5.98
-7.47
-8.55
-9.29
-9.88
-10.55
-11.57
-13.13
-15.29
-17.91
-20.56
-22.65
-23.56
-22.84
-20.34
-16.32
-11.34
-6.16
-1.51
2.08
4.41
5.59
5.97
5.98
5.97
6.17
6.60
7.20
7.82
8.35
8.68
8.76
8.58
8.16
7.58
7.00
6.58
6.44
6.59
6.89
7.10
6.95
6.28
5.06
3.45
1.67
-0.03
-1.52
-2.76
-3.82
-4.77
-5.66
-6.48
-7.21
-7.83
-8.45
-9.23
-10.39
-12.07
-14.26
-16.70
-18.96
-20.50
-20.88
-19.78
-17.17
-13.24
-8.41
-3.21
1.74
5.87
8.78
10.36
10.80
10.52
10.03
9.76
9.93
10.57
11.49
12.48
13.32
13.87
14.09
13.98
13.66
13.23
12.86
12.66
12.70
12.93
13.19
13.23
12.78
11.68
9.87
7.51
4.92
2.47
0.48
-0.88
-1.64
-2.01
-2.28
-2.74
-3.54
-4.74
-6.24
-7.89
-9.54
-11.08
-12.50
-13.82
-15.05
-16.13
-16.88
-17.03
-16.34
-14.68
-12.16
-9.11
-5.94
-3.01
-0.45
1.73
3.65
5.34
6.77
7.79
8.29
8.28
7.86
7.23
6.57
6.00
5.57
5.30
5.24
5.43
5.90
6.57
7.26
7.73
7.72
7.04
5.66
3.71
1.45
-0.80
-2.75
-4.26
-5.31
-6.04
-6.62
-7.22
-7.99
-9.00
-10.26
-11.71
-13.23
-14.71
-16.06
-17.24
-18.23
-18.97
-19.30
-18.99
-17.81
-15.63
-12.54
-8.85
-4.98
-1.33
1.87
4.53
6.72
8.50
9.89
10.85
11.32
11.33
11.02
10.58
10.19
9.97
9.90
9.94
10.02
10.11
10.22
10.33
10.39
10.29
9.97
9.45
8.82
8.20
7.65
7.09
6.43
5.55
4.49
3.36
2.33
1.47
0.75
0.06
-0.72
-1.59
-2.49
-3.33
-4.08
-4.84
-5.73
-6.83
-8.09
-9.40
-10.57
-11.55
-12.40
-13.33
-14.56
-16.12
-17.83
-19.22
-19.74
-18.93
-16.59
-12.87
-8.20
-3.19
1.58
5.66
8.82
10.98
12.25
12.76
12.70
12.25
11.56
10.79
10.09
9.63
9.54
9.87
10.58
11.53
12.53
13.38
13.95
14.19
14.12
13.79
13.28
12.66
11.96
11.18
10.32
9.41
8.49
7.63
6.87
6.21
5.56
4.81
3.88
2.80
1.68
0.71
0.04
-0.30
-0.40
-0.47
-0.76
-1.45
-2.64
-4.28
-6.19
-8.11
-9.76
-10.94
-11.63
-11.97
-12.26
-12.82
-13.89
-15.52
-17.56
-19.63
-21.25
-21.89
-21.13
-18.75
-14.85
-9.83
-4.31
1.00
5.50
8.78
10.71
11.36
10.96
9.87
8.46
7.10
6.10
5.61
5.67
6.14
6.81
7.50
8.08
8.47
8.65
8.62
8.38
7.97
7.47
7.02
6.74
6.72
6.91
7.16
7.23
6.88
5.98
4.54
2.72
0.77
-1.02
-2.42
-3.29
-3.58
-3.37
-2.86
-2.32
-2.05
-2.29
-3.11
-4.41
-5.96
-7.47
-8.72
-9.65
-10.34
-10.96
-11.68
-12.66
-13.90
-15.22
-16.30
-16.72
-16.12
-14.30
-11.37
-7.67
-3.67
0.19
3.60
6.39
8.50
9.85
10.39
10.13
9.18
7.76
6.17
4.73
3.69
3.18
3.25
3.80
4.69
5.75
6.79
7.69
8.41
8.94
9.33
9.59
9.77
9.90
10.02
10.20
10.43
10.66
10.74
10.53
9.93
8.94
7.67
6.28
4.94
3.76
2.83
2.17
1.73
1.45
1.16
0.69
-0.11
-1.30
-2.84
-4.59
-6.34
-7.92
-9.21
-10.18
-10.84
-11.32
-11.77
-12.40
-13.43
-14.99
-17.09
-19.47
-21.70
-23.17
-23.30
-21.71
-18.38
-13.67
-8.24
-2.87
1.77
5.27
7.56
8.80
9.27
9.22
8.88
8.39
7.86
7.44
7.22
7.27
7.56
8.02
8.49
8.85
9.01
8.92
8.60
8.15
7.67
7.29
7.09
7.07
7.11
7.02
6.56
5.55
3.97
1.95
-0.23
-2.24
-3.81
-4.79
-5.21
-5.22
-5.04
-4.94
-5.10
-5.59
-6.41
-7.46
-8.61
-9.76
-10.86
-11.86
-12.78
-13.57
-14.25
-14.79
-15.19
-15.37
-15.21
-14.49
-13.02
-10.69
-7.62
-4.12
-0.59
2.59
5.16
7.06
8.31
8.99
9.14
8.80
8.00
6.88
5.62
4.50
3.75
3.54
3.90
4.74
5.89
7.12
8.23
9.08
9.55
9.60
9.21
8.46
7.43
6.30
5.26
4.49
4.07
4.02
4.22
4.47
4.51
4.15
3.26
1.89
0.24
-1.39
-2.71
-3.50
-3.76
-3.62
-3.35
-3.20
-3.36
-3.90
-4.83
-6.09
-7.59
-9.27
-11.04
-12.82
-14.46
-15.78
-16.53
-16.48
-15.45
-13.42
-10.55
-7.17
-3.67
-0.39
2.46
4.82
6.71
8.15
9.11
9.50
9.30
8.55
7.39
6.07
4.80
3.78
3.13
2.90
3.11
3.75
4.73
5.87
6.94
7.69
7.97
7.73
7.08
6.17
5.17
4.18
3.25
2.42
1.71
1.16
0.81
0.58
0.36
-0.09
-0.93
-2.22
-3.83
-5.48
-6.86
-7.77
-8.21
-8.32
-8.35
-8.54
-9.04
-9.93
-11.20
-12.77
-14.41
-15.80
-16.46
-16.00
-14.25
-11.35
-7.72
-3.90
-0.40
2.45
4.52
5.78
6.29
6.17
5.61
4.84
4.11
3.63
3.54
3.86
4.52
5.38
6.30
7.12
7.74
8.12
8.30
8.35
8.36
8.36
8.36
8.30
8.14
7.87
7.51
7.12
6.72
6.28
5.71
4.92
3.88
2.66
1.47
0.55
0.04
-0.07
0.01
-0.00
-0.35
-1.10
-2.18
-3.43
-4.71
-5.88
-6.90
-7.73
-8.35
-8.84
-9.36
-10.12
-11.27
-12.80
-14.47
-15.83
-16.41
-15.85
-14.06
-11.19
-7.60
-3.71
0.05
3.35
5.91
7.61
8.42
8.43
7.86
6.98
6.06
5.30
4.81
4.60
4.64
4.88
5.26
5.74
6.22
6.61
6.87
6.99
7.04
7.10
7.21
7.33
7.36
7.17
6.73
6.06
5.24
4.33
3.38
2.36
1.30
0.27
-0.64
-1.34
-1.81
-2.15
-2.53
-3.13
-4.02
-5.19
-6.56
-8.03
-9.57
-11.20
-12.95
-14.85
-16.85
-18.76
-20.33
-21.24
-21.18
-19.95
-17.53
-14.15
-10.24
-6.34
-2.90
-0.19
1.73
2.99
3.76
4.14
4.18
3.86
3.23
2.42
1.60
0.91
0.44
0.20
0.16
0.29
0.61
1.07
1.58
1.93
1.89
1.34
0.35
-0.79
-1.73
-2.20
-2.15
-1.72
-1.17
-0.71
-0.46
-0.38
-0.43
-0.54
-0.71
-0.91
-1.07
-1.14
-1.06
-0.94
-0.93
-1.19
-1.80
-2.70
-3.74
-4.79
-5.79
-6.80
-7.85
-8.93
-9.93
-10.62
-10.82
-10.38
-9.28
-7.55
-5.24
-2.42
0.84
4.40
8.01
11.28
13.78
15.10
14.98
13.43
10.76
7.53
4.49
2.32
1.46
2.05
3.81
6.22
8.69
10.70
11.99
12.52
12.45
11.98
11.35
10.75
10.29
10.05
10.02
10.11
10.12
9.82
9.01
7.62
5.71
3.47
1.13
-1.11
-3.07
-4.64
-5.74
-6.39
-6.68
-6.80
-6.94
-7.20
-7.48
-7.53
-7.09
-5.98
-4.29
-2.25
-0.15
1.82
3.62
5.28
6.81
8.09
8.96
9.28
9.03
8.37
7.55
6.82
6.30
6.06
6.07
6.33
6.84
7.50
8.20
8.75
9.02
8.95
8.55
7.90
6.99
5.80
4.25
2.33
0.12
-2.22
-4.51
-6.64
-8.57
-10.34
-11.98
-13.53
-14.99
-16.38
-17.78
-19.32
-21.05
-22.86
-24.47
-25.45
-25.40
-24.11
-21.66
-18.43
-14.88
-11.42
-8.30
-5.59
-3.30
-1.44
-0.06
0.79
1.15
1.16
0.99
0.79
0.59
0.35
-0.01
-0.50
-1.06
-1.57
-1.87
-1.94
-1.78
-1.49
-1.17
-0.93
-0.89
-1.16
-1.86
-3.04
-4.64
-6.48
-8.27
-9.76
-10.82
-11.46
-11.84
-12.15
-12.50
-12.95
-13.45
-13.90
-14.17
-14.08
-13.43
-12.02
-9.71
-6.53
-2.69
1.42
5.32
8.61
11.09
12.80
13.95
14.80
15.55
16.27
16.96
17.59
18.19
18.84
19.67
20.75
22.10
23.68
25.41
27.19
28.90
30.36
31.41
31.86
31.65
30.77
29.32
27.41
25.14
22.54
19.55
16.08
12.02
7.35
2.21
-3.09
-8.13
-12.49
-15.96
-18.60
-20.73
-22.78
-25.05
-27.57
-30.05
-32.05
-33.07
-32.76
-31.01
-27.92
-23.79
-19.00
-13.99
-9.11
-4.64
-0.71
2.63
5.41
7.69
9.46
10.71
11.38
11.50
11.18
10.67
10.26
10.19
10.53
11.19
11.91
12.47
12.75
12.77
12.69
12.62
12.58
12.48
12.15
11.49
10.49
9.28
8.09
7.09
6.35
5.78
5.22
4.47
3.41
2.02
0.41
-1.26
-2.86
-4.31
-5.59
-6.74
-7.83
-8.88
-9.94
-11.06
-12.26
-13.61
-15.09
-16.64
-18.06
-19.04
-19.25
-18.43
-16.49
-13.58
-10.04
-6.26
-2.61
0.71
3.60
6.08
8.16
9.81
10.99
11.67
11.87
11.72
11.41
11.13
11.05
11.22
11.61
12.08
12.54
12.88
13.07
13.13
13.05
12.84
12.47
11.96
11.31
10.60
9.86
9.14
8.45
7.78
7.10
6.40
5.62
4.68
3.53
2.16
0.67
-0.72
-1.81
-2.41
-2.56
-2.44
-2.37
-2.68
-3.54
-4.89
-6.49
-8.05
-9.35
-10.36
-11.20
-12.09
-13.23
-14.67
-16.33
-17.98
-19.32
-20.02
-19.78
-18.40
-15.83
-12.22
-7.93
-3.48
0.62
3.92
6.20
7.43
7.79
7.53
6.95
6.27
5.64
5.17
4.94
5.00
5.41
6.11
6.99
7.82
8.43
8.68
8.56
8.17
7.65
7.10
6.55
5.98
5.33
4.62
3.88
3.15
2.47
1.84
1.21
0.49
-0.39
-1.48
-2.76
-4.13
-5.46
-6.56
-7.34
-7.79
-8.10
-8.54
-9.36
-10.69
-12.44
-14.29
-15.80
-16.49
-16.03
-14.35
-11.60
-8.14
-4.45
-0.93
2.10
4.50
6.23
7.35
7.94
8.11
8.02
7.85
7.79
7.99
8.48
9.12
9.72
10.05
10.03
9.73
9.34
9.08
9.10
9.38
9.79
10.18
10.43
10.48
10.33
9.99
9.43
8.62
7.58
6.39
5.22
4.26
3.64
3.44
3.60
3.99
4.43
4.73
4.75
4.39
3.67
2.63
1.39
0.12
-1.01
-1.85
-2.30
-2.40
-2.29
-2.25
-2.54
-3.36
-4.71
-6.42
-8.18
-9.68
-10.75
-11.38
-11.69
-11.92
-12.26
-12.90
-13.92
-15.33
-17.03
-18.78
-20.19
-20.82
-20.27
-18.36
-15.18
-11.13
-6.80
-2.78
0.49
2.82
4.29
5.14
5.67
6.10
6.53
6.93
7.23
7.42
7.50
7.56
7.66
7.80
7.90
7.91
7.82
7.71
7.70
7.91
8.29
8.71
8.93
8.80
8.31
7.57
6.79
6.12
5.62
5.23
4.88
4.47
3.96
3.33
2.61
1.81
0.97
0.16
-0.57
-1.16
-1.61
-1.99
-2.38
-2.86
-3.51
-4.34
-5.33
-6.39
-7.43
-8.39
-9.28
-10.16
-11.16
-12.40
-13.90
-15.60
-17.30
-18.73
-19.52
-19.34
-17.95
-15.32
-11.68
-7.46
-3.24
0.44
3.25
5.08
6.04
6.39
6.36
6.17
5.92
5.70
5.53
5.45
5.48
5.62
5.85
6.13
6.42
6.68
6.96
7.27
7.66
8.08
8.42
8.54
8.33
7.75
6.91
6.01
5.24
4.70
4.41
4.26
4.13
3.91
3.52
2.98
2.31
1.60
0.91
0.27
-0.30
-0.80
-1.26
-1.71
-2.19
-2.73
-3.37
-4.13
-5.02
-5.99
-6.97
-7.88
-8.67
-9.32
-9.84
-10.24
-10.58
-10.96
-11.52
-12.43
-13.76
-15.39
-17.01
-18.12
-18.25
-17.12
-14.74
-11.39
-7.51
-3.56
0.09
3.19
5.62
7.32
8.28
8.56
8.28
7.65
6.92
6.32
5.96
5.84
5.83
5.80
5.66
5.44
5.23
5.17
5.31
5.61
5.98
6.31
6.53
6.62
6.57
6.35
5.92
5.29
4.50
3.66
2.89
2.24
1.68
1.12
0.50
-0.18
-0.84
-1.34
-1.65
-1.80
-1.95
-2.23
-2.72
-3.39
-4.14
-4.87
-5.57
-6.26
-6.99
-7.81
-8.69
-9.64
-10.66
-11.81
-13.11
-14.50
-15.81
-16.70
-16.82
-15.91
-13.91
-10.99
-7.49
-3.79
-0.23
2.91
5.50
7.40
8.55
8.94
8.66
7.89
6.90
5.96
5.25
4.82
4.65
4.69
4.94
5.38
5.99
6.67
7.30
7.74
7.95
7.96
7.91
7.90
7.95
7.93
7.68
7.08
6.16
5.04
3.94
2.99
2.23
1.57
0.92
0.21
-0.54
-1.25
-1.83
-2.27
-2.61
-2.95
-3.41
-4.02
-4.79
-5.63
-6.42
-7.07
-7.53
-7.82
-8.07
-8.43
-9.05
-10.02
-11.33
-12.91
-14.57
-16.02
-16.91
-16.88
-15.70
-13.34
-9.98
-6.06
-2.06
1.56
4.50
6.64
7.97
8.59
8.63
8.23
7.56
6.81
6.18
5.81
5.75
5.97
6.38
6.85
7.31
7.68
7.96
8.19
8.41
8.64
8.87
9.03
9.03
8.78
8.21
7.34
6.27
5.12
4.04
3.13
2.42
1.87
1.38
0.87
0.27
-0.40
-1.08
-1.70
-2.20
-2.58
-2.90
-3.22
-3.66
-4.27
-5.05
-5.97
-6.96
-7.92
-8.72
-9.31
-9.68
-9.97
-10.36
-11.07
-12.23
-13.77
-15.44
-16.87
-17.67
-17.55
-16.39
-14.27
-11.37
-7.95
-4.31
-0.74
2.49
5.12
7.01
8.11
8.52
8.42
8.01
7.47
6.89
6.35
5.89
5.57
5.47
5.68
6.22
7.03
7.98
8.87
9.53
9.85
9.84
9.55
9.10
8.56
7.97
7.30
6.53
5.67
4.78
3.97
3.33
2.91
2.68
2.51
2.26
1.83
1.21
0.46
-0.28
-0.96
-1.59
-2.27
-3.11
-4.18
-5.38
-6.53
-7.43
-7.96
-8.14
-8.13
-8.14
-8.40
-9.07
-10.22
-11.85
-13.82
-15.85
-17.48
-18.21
-17.58
-15.41
-11.87
-7.51
-3.03
0.89
3.86
5.80
6.91
7.51
7.81
7.91
7.77
7.36
6.70
5.91
5.19
4.71
4.60
4.85
5.43
6.23
7.10
7.92
8.55
8.89
8.93
8.69
8.27
7.74
7.17
6.56
5.97
5.41
4.89
4.40
3.84
3.15
2.25
1.21
0.14
-0.82
-1.58
-2.18
-2.72
-3.31
-4.01
-4.80
-5.61
-6.36
-7.04
-7.69
-8.38
-9.20
-10.23
-11.50
-12.98
-14.52
-15.91
-16.83
-16.94
-15.98
-13.88
-10.83
-7.19
-3.44
0.01
2.91
5.16
6.78
7.79
8.22
8.10
7.54
6.74
5.96
5.42
5.23
5.35
5.65
6.01
6.37
6.74
7.17
7.63
8.08
8.41
8.52
8.40
8.05
7.49
6.74
5.84
4.83
3.81
2.90
2.18
1.70
1.37
1.03
0.52
-0.28
-1.33
-2.52
-3.70
-4.76
-5.66
-6.45
-7.16
-7.82
-8.46
-9.10
-9.86
-10.85
-12.13
-13.55
-14.83
-15.52
-15.20
-13.69
-11.12
-7.87
-4.43
-1.22
1.51
3.71
5.41
6.67
7.46
7.78
7.62
7.09
6.38
5.68
5.15
4.90
4.97
5.34
5.99
6.86
7.83
8.77
9.55
10.06
10.24
10.11
9.69
9.06
8.28
7.42
6.55
5.72
4.93
4.13
3.29
2.37
1.39
0.42
-0.42
-1.04
-1.42
-1.58
-1.69
-1.89
-2.33
-3.06
-4.04
-5.16
-6.28
-7.29
-8.15
-8.88
-9.56
-10.31
-11.30
-12.66
-14.41
-16.41
-18.28
-19.52
-19.61
-18.23
-15.42
-11.59
-7.33
-3.25
0.23
2.94
4.90
6.23
7.03
7.38
7.34
7.02
6.58
6.21
6.02
6.07
6.30
6.64
7.02
7.40
7.75
8.05
8.26
8.32
8.20
7.93
7.55
7.10
6.63
6.13
5.58
4.96
4.26
3.49
2.68
1.82
0.86
-0.24
-1.52
-2.94
-4.40
-5.77
-6.92
-7.86
-8.67
-9.49
-10.48
-11.70
-13.14
-14.67
-16.15
-17.36
-18.14
-18.30
-17.67
-16.17
-13.80
-10.74
-7.29
-3.85
-0.78
1.69
3.54
4.91
6.02
7.03
7.99
8.83
9.45
9.78
9.83
9.72
9.60
9.62
9.84
10.24
10.73
11.19
11.53
11.72
11.76
11.68
11.48
11.16
10.69
10.10
9.42
8.72
8.05
7.45
6.88
6.31
5.68
4.96
4.17
3.37
2.59
1.88
1.22
0.58
-0.08
-0.79
-1.58
-2.43
-3.27
-4.07
-4.78
-5.40
-6.01
-6.67
-7.52
-8.59
-9.91
-11.40
-12.95
-14.42
-15.65
-16.41
-16.48
-15.64
-13.80
-11.05
-7.67
-4.09
-0.71
2.15
4.31
5.72
6.42
6.50
6.13
5.53
4.98
4.68
4.75
5.11
5.62
6.10
6.46
6.69
6.84
6.95
6.99
6.96
6.81
6.59
6.34
6.09
5.80
5.38
4.76
3.92
2.94
1.99
1.22
0.68
0.29
-0.16
-0.85
-1.85
-3.08
-4.35
-5.46
-6.34
-7.01
-7.62
-8.30
-9.06
-9.83
-10.52
-11.13
-11.79
-12.75
-14.15
-15.96
-17.86
-19.31
-19.76
-18.85
-16.55
-13.15
-9.15
-5.11
-1.49
1.44
3.59
4.99
5.77
6.09
6.10
5.98
5.89
5.97
6.34
7.02
7.93
8.88
9.66
10.13
10.24
10.12
9.96
9.98
10.28
10.84
11.52
12.17
12.60
12.74
12.54
12.02
11.25
10.28
9.21
8.13
7.15
6.39
5.91
5.71
5.69
5.68
5.51
5.07
4.37
3.51
2.64
1.92
1.42
1.10
0.89
0.70
0.44
0.09
-0.37
-0.92
-1.56
-2.25
-3.00
-3.81
-4.70
-5.67
-6.67
-7.64
-8.48
-9.14
-9.64
-10.05
-10.50
-11.15
-12.09
-13.37
-14.91
-16.50
-17.84
-18.55
-18.30
-16.93
-14.49
-11.28
-7.73
-4.26
-1.19
1.37
3.39
4.93
6.03
6.71
7.01
7.00
6.84
6.68
6.69
6.93
7.36
7.88
8.35
8.68
8.86
9.01
9.30
9.84
10.63
11.49
12.13
12.29
11.84
10.81
9.43
7.96
6.63
5.59
4.87
4.41
4.12
3.90
3.65
3.30
2.81
2.16
1.38
0.48
-0.46
-1.39
-2.26
-3.03
-3.70
-4.33
-5.02
-5.87
-6.96
-8.33
-9.95
-11.80
-13.81
-15.84
-17.68
-19.01
-19.44
-18.72
-16.73
-13.63
-9.81
-5.80
-2.09
0.99
3.28
4.83
5.79
6.37
6.75
7.04
7.31
7.58
7.83
8.02
8.12
8.12
8.07
8.05
8.13
8.37
8.80
9.38
10.03
10.67
11.18
11.48
11.47
11.11
10.44
9.58
8.68
7.91
7.35
6.98
6.69
6.36
5.91
5.29
4.48
3.51
2.43
1.34
0.36
-0.39
-0.86
-1.08
-1.18
-1.32
-1.62
-2.15
-2.89
-3.81
-4.88
-6.08
-7.34
-8.57
-9.64
-10.44
-11.00
-11.46
-12.09
-13.06
-14.35
-15.66
-16.51
-16.42
-15.13
-12.67
-9.39
-5.75
-2.20
0.96
3.57
5.56
6.86
7.45
7.40
6.88
6.11
5.39
4.88
4.68
4.75
5.04
5.51
6.13
6.87
7.66
8.38
8.93
9.23
9.27
9.12
8.84
8.51
8.18
7.91
7.71
7.59
7.46
7.17
6.57
5.57
4.21
2.72
1.37
0.38
-0.17
-0.37
-0.41
-0.51
-0.78
-1.29
-2.02
-2.98
-4.13
-5.44
-6.81
-8.08
-9.09
-9.73
-10.02
-10.11
-10.20
-10.54
-11.28
-12.51
-14.16
-16.00
-17.66
-18.72
-18.79
-17.66
-15.36
-12.17
-8.49
-4.75
-1.30
1.62
3.84
5.29
6.00
6.07
5.69
5.11
4.53
4.07
3.80
3.75
3.92
4.33
4.98
5.77
6.57
7.23
7.69
7.97
8.13
8.23
8.30
8.27
8.08
7.72
7.22
6.67
6.10
5.51
4.86
4.11
3.26
2.34
1.44
0.63
-0.01
-0.46
-0.77
-1.02
-1.32
-1.77
-2.43
-3.27
-4.22
-5.17
-6.03
-6.78
-7.47
-8.19
-9.04
-10.10
-11.38
-12.80
-14.14
-15.13
-15.44
-14.82
-13.19
-10.67
-7.55
-4.21
-1.01
1.77
3.98
5.60
6.65
7.20
7.34
7.18
6.86
6.49
6.19
6.00
5.95
6.05
6.30
6.69
7.17
7.71
8.27
8.82
9.36
9.91
10.47
10.99
11.32
11.34
10.96
10.24
9.37
8.65
8.30
8.39
8.79
9.23
9.46
9.35
8.97
8.56
8.36
8.55
9.14
9.97
10.83
11.53
12.01
12.38
12.81
13.53
14.69
16.34
18.46
20.88
23.35
25.44
26.65
26.49
24.73
21.58
17.75
14.34
12.49
13.02
16.24
21.86
29.18
37.36
45.58
53.18
59.61
64.38
67.06
67.32
65.03
60.32
53.61
45.56
36.86
28.15
19.81
11.97
4.62
-2.28
-8.64
-14.28
-18.95
-22.53
-25.09
-26.89
-28.25
-29.42
-30.49
-31.36
-31.86
-31.92
-31.55
-30.93
-30.29
-29.78
-29.47
-29.27
-29.08
-28.78
-28.37
-27.89
-27.44
-27.09
-26.89
-26.85
-26.94
-27.06
-27.06
-26.81
-26.18
-25.16
-23.81
-22.25
-20.59
-18.86
-17.06
-15.17
-13.27
-11.48
-9.96
-8.78
-7.94
-7.33
-6.83
-6.41
-6.12
-6.06
-6.32
-6.91
-7.74
-8.64
-9.45
-10.02
-10.27
-10.20
-9.84
-9.29
-8.62
-7.89
-7.14
-6.38
-5.66
-5.06
-4.67
-4.55
-4.72
-5.09
-5.56
-6.00
-6.32
-6.43
-6.31
-5.90
-5.22
-4.28
-3.18
-2.09
-1.19
-0.65
-0.56
-0.91
-1.57
-2.40
-3.25
-4.02
-4.72
-5.35
-5.97
-6.59
-7.25
-7.95
-8.68
-9.41
-10.07
-10.52
-10.63
-10.34
-9.66
-8.73
-7.79
-7.04
-6.61
-6.47
-6.51
-6.56
-6.47
-6.18
-5.69
-5.09
-4.49
-4.04
-3.88
-4.09
-4.68
-5.53
-6.44
-7.24
-7.85
-8.34
-8.81
-9.41
-10.17
-11.03
-11.90
-12.75
-13.62
-14.65
-15.94
-17.53
-19.40
-21.44
-23.58
-25.80
-28.16
-30.64
-33.06
-35.06
-36.11
-35.77
-33.82
-30.36
-25.76
-20.47
-14.85
-9.14
-3.48
1.96
6.90
11.06
14.22
16.36
17.71
18.57
19.27
20.02
20.84
21.74
22.72
23.85
25.24
27.00
29.12
31.51
33.92
36.08
37.75
38.74
38.99
38.48
37.33
35.70
33.82
31.92
30.16
28.60
27.17
25.76
24.30
22.80
21.34
19.99
18.70
17.28
15.46
12.96
9.65
5.57
0.94
-3.86
-8.45
-12.52
-15.91
-18.60
-20.72
-22.41
-23.78
-24.87
-25.69
-26.28
-26.82
-27.50
-28.53
-29.95
-31.63
-33.26
-34.51
-35.18
-35.26
-34.99
-34.64
-34.44
-34.43
-34.52
-34.49
-34.15
-33.40
-32.25
-30.72
-28.87
-26.75
-24.36
-21.70
-18.68
-15.10
-10.67
-5.00
2.19
10.94
21.02
31.94
43.05
53.78
63.62
72.20
79.18
84.24
87.09
87.63
85.99
82.57
77.93
72.55
66.70
60.38
53.38
45.54
36.82
27.37
17.44
7.25
-3.05
-13.29
-23.26
-32.64
-41.05
-48.18
-53.93
-58.43
-61.97
-64.92
-67.58
-70.15
-72.67
-75.12
-77.41
-79.45
-81.18
-82.45
-83.09
-82.85
-81.48
-78.89
-75.19
-70.69
-65.82
-60.88
-55.99
-51.03
-45.78
-40.05
-33.81
-27.12
-20.18
-13.17
-6.27
0.35
6.51
12.05
16.80
20.69
23.63
25.60
26.63
26.85
26.49
25.89
25.34
25.01
24.86
24.68
24.18
23.20
21.71
19.90
18.05
16.40
15.03
13.91
12.91
11.90
10.77
9.48
8.03
6.41
4.69
2.93
1.28
-0.16
-1.30
-2.16
-2.79
-3.22
-3.42
-3.30
-2.77
-1.86
-0.73
0.37
1.27
1.95
2.62
3.61
5.24
7.66
10.80
14.41
18.09
21.50
24.33
26.44
27.80
28.45
28.52
28.12
27.33
26.20
24.77
23.13
21.37
19.65
18.05
16.61
15.28
14.01
12.78
11.57
10.44
9.39
8.41
7.45
6.47
5.40
4.20
2.80
1.15
-0.76
-2.80
-4.77
-6.46
-7.69
-8.40
-8.62
-8.44
-7.91
-7.11
-6.10
-5.00
-3.97
-3.16
-2.62
-2.34
-2.24
-2.30
-2.56
-3.15
-4.15
-5.51
-7.01
-8.26
-8.87
-8.55
-7.22
-4.98
-2.09
1.14
4.42
7.46
10.07
12.07
13.33
13.86
13.78
13.33
12.85
12.68
12.99
13.76
14.75
15.66
16.21
16.29
15.98
15.46
14.94
14.53
14.19
13.76
13.07
11.99
10.55
8.83
7.01
5.22
3.61
2.24
1.17
0.37
-0.21
-0.70
-1.24
-1.97
-3.02
-4.43
-6.16
-8.13
-10.20
-12.23
-14.07
-15.56
-16.56
-16.93
-16.55
-15.36
-13.38
-10.76
-7.78
-4.82
-2.25
-0.38
0.71
1.09
0.98
0.60
0.11
-0.41
-0.94
-1.46
-1.93
-2.29
-2.49
-2.51
-2.37
-2.05
-1.53
-0.76
0.29
1.56
2.92
4.22
5.37
6.37
7.26
8.09
8.85
9.48
9.89
10.09
10.17
10.33
10.88
12.12
14.35
17.73
22.23
27.53
32.97
37.68
40.83
41.90
40.84
38.17
34.78
31.67
29.75
29.63
31.63
35.69
41.47
48.36
55.55
62.24
67.77
71.74
74.03
74.60
73.41
70.35
65.37
58.62
50.53
41.79
33.10
24.95
17.50
10.71
4.55
-0.91
-5.44
-8.89
-11.29
-12.95
-14.33
-15.85
-17.65
-19.63
-21.53
-23.12
-24.32
-25.24
-26.03
-26.83
-27.67
-28.46
-29.08
-29.41
-29.40
-29.10
-28.63
-28.13
-27.69
-27.30
-26.89
-26.32
-25.52
-24.51
-23.41
-22.36
-21.46
-20.70
-20.02
-19.37
-18.79
-18.39
-18.35
-18.71
-19.41
-20.22
-20.84
-21.03
-20.68
-19.78
-18.43
-16.75
-14.88
-12.96
-11.15
-9.61
-8.48
-7.80
-7.54
-7.57
-7.73
-7.89
-7.97
-7.94
-7.83
-7.67
-7.48
-7.28
-7.16
-7.27
-7.86
-9.23
-11.66
-15.22
-19.74
-24.78
-29.71
-33.92
-36.98
-38.74
-39.34
-39.10
-38.36
-37.35
-36.11
-34.54
-32.42
-29.51
-25.69
-20.98
-15.60
-9.98
-4.60
0.05
3.67
6.19
7.75
8.59
9.02
9.28
9.61
10.21
11.27
12.90
15.04
17.46
19.73
21.38
22.07
21.64
20.12
17.64
14.39
10.51
6.18
1.64
-2.78
-6.71
-9.86
-12.09
-13.49
-14.26
-14.66
-14.85
-14.86
-14.67
-14.20
-13.43
-12.34
-10.94
-9.21
-7.15
-4.81
-2.32
0.12
2.33
4.20
5.75
7.07
8.26
9.38
10.37
11.14
11.58
11.63
11.31
10.74
10.11
9.62
9.43
9.56
9.87
10.08
9.88
9.04
7.47
5.26
2.56
-0.44
-3.58
-6.71
-9.58
-11.88
-13.27
-13.57
-12.82
-11.28
-9.37
-7.45
-5.65
-3.90
-1.97
0.32
2.97
5.72
8.20
10.03
11.00
11.15
10.72
10.03
9.37
8.91
8.72
8.76
9.01
9.48
10.15
11.01
12.00
13.01
13.91
14.60
15.01
15.10
14.89
14.37
13.56
12.51
11.25
9.81
8.26
6.68
5.10
3.58
2.11
0.63
-0.86
-2.36
-3.75
-4.87
-5.56
-5.75
-5.45
-4.77
-3.89
-2.91
-1.92
-0.95
-0.02
0.82
1.50
1.98
2.29
2.46
2.56
2.63
2.68
2.69
2.67
2.65
2.66
2.76
2.98
3.34
3.81
4.35
4.87
5.27
5.46
5.43
5.22
4.93
4.68
4.50
4.38
4.23
3.94
3.43
2.70
1.80
0.80
-0.15
-0.96
-1.59
-2.07
-2.54
-3.11
-3.86
-4.80
-5.81
-6.79
-7.63
-8.26
-8.62
-8.61
-8.10
-7.02
-5.41
-3.49
-1.59
-0.07
0.84
1.09
0.83
0.29
-0.32
-0.83
-1.17
-1.33
-1.34
-1.23
-1.06
-0.89
-0.78
-0.75
-0.74
-0.64
-0.33
0.24
1.02
1.82
2.43
2.67
2.44
1.79
0.85
-0.24
-1.35
-2.39
-3.30
-4.02
-4.57
-5.02
-5.47
-6.06
-6.87
-7.91
-9.10
-10.36
-11.56
-12.59
-13.35
-13.71
-13.57
-12.83
-11.46
-9.49
-7.05
-4.25
-1.25
1.76
4.57
6.91
8.55
9.34
9.27
8.51
7.40
6.29
5.50
5.17
5.23
5.51
5.78
5.88
5.76
5.48
5.13
4.75
4.33
3.83
3.22
2.58
2.04
1.70
1.57
1.53
1.39
0.99
0.25
-0.79
-1.97
-3.14
-4.20
-5.07
-5.75
-6.28
-6.71
-7.16
-7.69
-8.42
-9.37
-10.53
-11.76
-12.85
-13.52
-13.46
-12.49
-10.58
-7.94
-4.93
-1.97
0.64
2.80
4.55
6.08
7.46
8.71
9.69
10.28
10.44
10.28
10.01
9.82
9.83
9.96
10.07
10.00
9.69
9.25
8.86
8.68
8.79
9.10
9.42
9.56
9.37
8.83
8.01
7.04
6.05
5.17
4.49
4.05
3.82
3.74
3.63
3.34
2.72
1.70
0.31
-1.28
-2.89
-4.31
-5.44
-6.32
-7.10
-7.99
-9.18
-10.74
-12.62
-14.61
-16.39
-17.63
-18.03
-17.39
-15.71
-13.12
-9.95
-6.57
-3.36
-0.62
1.49
2.92
3.75
4.15
4.30
4.38
4.53
4.78
5.13
5.53
5.96
6.46
7.04
7.70
8.39
9.01
9.48
9.73
9.80
9.70
9.51
9.26
8.96
8.61
8.22
7.78
7.30
6.75
6.07
5.20
4.09
2.70
1.06
-0.75
-2.57
-4.25
-5.69
-6.93
-8.06
-9.28
-10.74
-12.48
-14.49
-16.63
-18.81
-20.97
-23.08
-25.12
-26.96
-28.38
-29.11
-28.94
-27.77
-25.71
-23.03
-20.02
-16.94
-13.95
-11.10
-8.36
-5.70
-3.09
-0.52
2.00
4.43
6.72
8.83
10.74
12.46
14.03
15.46
16.72
17.71
18.29
18.37
17.97
17.19
16.19
15.10
13.95
12.78
11.60
10.47
9.46
8.59
7.82
7.04
6.19
5.32
4.54
3.94
3.56
3.28
2.93
2.37
1.57
0.58
-0.49
-1.54
-2.54
-3.52
-4.53
-5.67
-7.03
-8.74
-10.85
-13.31
-15.89
-18.18
-19.68
-19.93
-18.63
-15.78
-11.73
-7.10
-2.66
0.89
3.15
4.04
3.83
2.84
1.39
-0.40
-2.52
-4.98
-7.71
-10.56
-13.32
-15.83
-18.08
-20.22
-22.45
-24.96
-27.87
-31.15
-34.60
-37.93
-40.75
-42.78
-43.96
-44.53
-44.99
-45.93
-47.78
-50.66
-54.32
-58.24
-61.75
-64.21
-64.99
-63.58
-59.63
-53.02
-44.00
-33.13
-21.24
-9.15
2.45
13.18
22.84
31.29
38.42
44.11
48.40
51.51
53.85
55.84
57.78
59.68
61.35
62.50
62.99
62.91
62.51
62.11
61.87
61.73
61.42
60.63
59.13
56.93
54.25
51.42
48.82
46.70
45.18
44.29
43.97
44.19
44.90
46.03
47.46
49.03
50.55
51.86
52.83
53.36
53.36
52.73
51.33
48.99
45.54
40.87
34.99
28.08
20.46
12.53
4.64
-2.93
-10.06
-16.67
-22.68
-27.97
-32.35
-35.70
-38.04
-39.56
-40.60
-41.50
-42.52
-43.73
-45.01
-46.10
-46.71
-46.52
-45.33
-43.02
-39.60
-35.27
-30.32
-25.12
-20.08
-15.50
-11.55
-8.31
-5.73
-3.72
-2.16
-0.91
0.16
1.17
2.19
3.22
4.26
5.29
6.35
7.46
8.63
9.81
10.90
11.83
12.52
12.95
13.10
12.96
12.50
11.72
10.64
9.34
7.91
6.39
4.82
3.21
1.61
0.12
-1.17
-2.18
-2.92
-3.44
-3.83
-4.14
-4.43
-4.76
-5.19
-5.79
-6.56
-7.44
-8.35
-9.26
-10.23
-11.40
-12.84
-14.47
-16.02
-17.05
-17.22
-16.38
-14.61
-12.25
-9.65
-7.13
-4.85
-2.91
-1.33
-0.14
0.70
1.23
1.55
1.74
1.89
2.02
2.16
2.30
2.42
2.52
2.59
2.67
2.79
3.03
3.40
3.85
4.24
4.41
4.24
3.70
2.88
1.92
0.97
0.12
-0.64
-1.38
-2.18
-3.14
-4.25
-5.50
-6.80
-8.03
-9.10
-9.91
-10.45
-10.81
-11.15
-11.67
-12.50
-13.58
-14.67
-15.39
-15.33
-14.24
-12.11
-9.19
-5.88
-2.54
0.56
3.37
5.99
8.53
11.04
13.43
15.45
16.86
17.45
17.22
16.34
15.08
13.70
12.34
11.06
9.82
8.59
7.37
6.18
4.97
3.68
2.15
0.28
-1.87
-4.13
-6.16
-7.64
-8.34
-8.22
-7.46
-6.31
-5.03
-3.80
-2.70
-1.73
-0.89
-0.20
0.34
0.77
1.18
1.65
2.19
2.70
3.04
3.07
2.74
2.13
1.35
0.51
-0.32
-1.12
-1.87
-2.53
-3.06
-3.46
-3.76
-4.00
-4.14
-4.02
-3.46
-2.30
-0.55
1.62
3.93
6.16
8.17
9.96
11.55
12.91
13.95
14.62
14.97
15.11
15.24
15.47
15.80
16.14
16.33
16.31
16.05
15.59
14.97
14.24
13.42
12.52
11.55
10.49
9.30
7.91
6.32
4.60
2.90
1.37
0.12
-0.83
-1.48
-1.93
-2.24
-2.55
-3.00
-3.77
-4.98
-6.64
-8.64
-10.76
-12.74
-14.41
-15.74
-16.89
-18.07
-19.51
-21.29
-23.27
-25.16
-26.58
-27.19
-26.81
-25.43
-23.23
-20.46
-17.36
-14.14
-10.94
-7.85
-4.91
-2.11
0.58
3.15
5.57
7.73
9.50
10.77
11.47
11.63
11.36
10.84
10.27
9.85
9.73
9.90
10.29
10.74
11.06
11.14
10.93
10.48
9.85
9.15
8.47
7.91
7.54
7.42
7.48
7.57
7.45
6.94
5.97
4.66
3.31
2.23
1.63
1.51
1.62
1.66
1.35
0.61
-0.46
-1.62
-2.67
-3.55
-4.32
-5.10
-5.96
-6.86
-7.64
-8.19
-8.49
-8.67
-8.92
-9.39
-10.08
-10.86
-11.55
-12.07
-12.47
-12.96
-13.74
-14.86
-16.18
-17.38
-18.08
-18.00
-17.05
-15.38
-13.29
-11.04
-8.82
-6.60
-4.25
-1.62
1.28
4.30
7.17
9.63
11.57
13.03
14.12
14.93
15.45
15.58
15.26
14.55
13.60
12.66
11.90
11.36
10.98
10.62
10.18
9.60
8.87
8.00
6.99
5.88
4.73
3.61
2.57
1.59
0.58
-0.54
-1.81
-3.17
-4.48
-5.57
-6.29
-6.58
-6.49
-6.18
-5.87
-5.74
-5.91
-6.40
-7.15
-8.09
-9.19
-10.45
-11.90
-13.54
-15.26
-16.86
-18.11
-18.81
-18.86
-18.23
-16.98
-15.19
-12.94
-10.34
-7.49
-4.58
-1.81
0.59
2.47
3.81
4.71
5.39
6.03
6.73
7.43
7.97
8.19
8.02
7.50
6.83
6.24
5.87
5.77
5.85
5.97
6.00
5.87
5.54
5.06
4.42
3.65
2.74
1.72
0.59
-0.60
-1.84
-3.12
-4.42
-5.71
-6.93
-7.95
-8.65
-8.89
-8.59
-7.76
-6.57
-5.28
-4.22
-3.68
-3.79
-4.49
-5.58
-6.80
-7.99
-9.12
-10.24
-11.42
-12.56
-13.41
-13.67
-13.11
-11.66
-9.47
-6.82
-3.98
-1.13
1.64
4.29
6.72
8.79
10.33
11.26
11.64
11.66
11.55
11.50
11.55
11.64
11.63
11.40
10.91
10.22
9.46
8.74
8.14
7.66
7.28
6.99
6.71
6.39
5.92
5.20
4.18
2.92
1.55
0.20
-1.07
-2.32
-3.66
-5.14
-6.69
-8.09
-9.11
-9.58
-9.50
-8.95
-8.10
-7.09
-6.02
-5.02
-4.26
-3.88
-4.04
-4.74
-5.91
-7.40
-9.11
-10.97
-12.98
-15.15
-17.47
-19.88
-22.29
-24.55
-26.54
-28.16
-29.35
-30.12
-30.47
-30.44
-30.09
-29.54
-28.91
-28.40
-28.15
-28.20
-28.49
-28.86
-29.21
-29.52
-29.84
-30.16
-30.35
-30.03
-28.65
-25.70
-20.87
-14.23
-6.19
2.63
11.60
20.22
28.17
35.15
40.93
45.22
47.88
48.91
48.60
47.39
45.75
43.94
41.98
39.73
37.03
33.91
30.65
27.63
25.23
23.60
22.64
22.05
21.51
20.77
19.75
18.48
17.05
15.54
14.00
12.46
10.99
9.68
8.67
7.99
7.62
7.43
7.28
7.08
6.81
6.56
6.43
6.48
6.68
6.92
7.04
6.91
6.51
5.87
5.14
4.45
3.89
3.49
3.19
2.92
2.60
2.18
1.68
1.11
0.53
-0.09
-0.79
-1.61
-2.59
-3.71
-4.91
-6.14
-7.38
-8.63
-9.91
-11.22
-12.53
-13.78
-14.92
-15.98
-17.02
-18.16
-19.45
-20.89
-22.36
-23.71
-24.77
-25.40
-25.47
-24.88
-23.54
-21.44
-18.70
-15.56
-12.36
-9.44
-7.00
-5.10
-3.62
-2.40
-1.31
-0.29
0.64
1.42
2.03
2.51
2.92
3.30
3.68
4.01
4.19
4.09
3.52
2.35
0.46
-2.20
-5.62
-9.76
-14.55
-19.93
-25.75
-31.81
-37.81
-43.41
-48.26
-52.14
-55.00
-57.02
-58.46
-59.64
-60.73
-61.72
-62.39
-62.38
-61.31
-58.91
-55.05
-49.85
-43.55
-36.54
-29.26
-22.09
-15.29
-8.97
-3.08
2.54
8.05
13.53
18.95
24.15
28.89
32.95
36.21
38.63
40.28
41.27
41.69
41.62
41.10
40.20
39.02
37.68
36.26
34.83
33.38
31.94
30.57
29.37
28.45
27.84
27.44
27.09
26.58
25.77
24.59
23.08
21.34
19.50
17.67
15.95
14.39
12.98
11.69
10.48
9.28
8.07
6.82
5.50
4.06
2.43
0.53
-1.67
-4.09
-6.51
-8.64
-10.15
-10.80
-10.44
-9.06
-6.80
-3.87
-0.55
2.81
5.91
8.57
10.70
12.39
13.81
15.14
16.49
17.88
19.24
20.46
21.44
22.14
22.59
22.88
23.10
23.31
23.51
23.63
23.56
23.18
22.40
21.16
19.46
17.33
14.89
12.32
9.86
7.69
5.92
4.50
3.34
2.38
1.65
1.26
1.34
2.00
3.19
4.82
6.73
8.77
10.87
12.94
14.92
16.75
18.33
19.61
20.57
21.22
21.58
21.63
21.35
20.68
19.59
18.07
16.15
13.87
11.25
8.33
5.14
1.81
-1.49
-4.55
-7.23
-9.47
-11.34
-12.89
-14.16
-15.05
-15.36
-14.89
-13.54
-11.45
-8.94
-6.45
-4.36
-2.86
-1.93
-1.37
-0.95
-0.50
-0.04
0.30
0.38
0.13
-0.41
-1.10
-1.77
-2.30
-2.64
-2.82
-2.93
-3.12
-3.55
-4.43
-5.95
-8.12
-10.70
-13.13
-14.67
-14.57
-12.39
-8.15
-2.37
4.06
10.17
15.10
18.31
19.64
19.27
17.68
15.49
13.37
11.82
11.03
10.82
10.69
10.04
8.43
5.73
2.15
-1.87
-5.84
-9.42
-12.46
-14.95
-16.98
-18.58
-19.70
-20.19
-19.86
-18.53
-16.09
-12.61
-8.35
-3.71
0.82
4.86
8.22
10.87
12.85
14.08
14.27
12.96
9.77
4.61
-2.12
-9.66
-17.06
-23.48
-28.43
-31.77
-33.63
-34.26
-33.94
-32.91
-31.40
-29.62
-27.69
-25.63
-23.32
-20.54
-17.07
-12.80
-7.76
-2.21
3.46
8.86
13.68
17.81
21.31
24.34
27.06
29.51
31.58
33.13
34.03
34.23
33.79
32.80
31.34
29.45
27.15
24.50
21.60
18.62
15.69
12.94
10.42
8.12
6.00
3.96
1.90
-0.30
-2.69
-5.28
-8.03
-10.85
-13.67
-16.44
-19.15
-21.76
-24.24
-26.48
-28.46
-30.17
-31.73
-33.28
-34.84
-36.24
-37.04
-36.62
-34.42
-30.25
-24.38
-17.51
-10.50
-4.08
1.42
6.04
10.10
13.93
17.65
21.08
23.83
25.45
25.60
24.21
21.46
17.80
13.70
9.59
5.72
2.14
-1.19
-4.27
-7.08
-9.52
-11.49
-13.00
-14.14
-15.03
-15.79
-16.44
-16.89
-17.01
-16.67
-15.85
-14.60
-13.09
-11.50
-9.98
-8.58
-7.30
-6.12
-5.03
-4.08
-3.30
-2.77
-2.44
-2.24
-1.98
-1.45
-0.47
1.06
3.08
5.36
7.57
9.41
10.63
11.19
11.17
10.68
9.85
8.73
7.33
5.66
3.80
1.90
0.20
-0.98
-1.34
-0.61
1.38
4.62
8.95
14.07
19.61
25.25
30.69
35.72
40.22
44.11
47.38
50.11
52.41
54.44
56.31
58.13
60.00
62.00
64.25
66.83
69.75
72.89
75.98
78.67
80.52
81.06
79.89
76.74
71.54
64.49
56.01
46.67
37.08
27.75
19.02
11.08
3.95
-2.39
-8.00
-12.93
-17.19
-20.76
-23.55
-25.49
-26.47
-26.44
-25.44
-23.57
-21.04
-18.07
-14.97
-12.03
-9.55
-7.82
-7.03
-7.33
-8.69
-11.03
-14.14
-17.75
-21.58
-25.41
-29.10
-32.64
-36.14
-39.70
-43.40
-47.14
-50.69
-53.78
-56.20
-57.87
-58.89
-59.39
-59.48
-59.16
-58.36
-57.06
-55.33
-53.39
-51.51
-49.92
-48.66
-47.58
-46.38
-44.70
-42.30
-39.13
-35.30
-31.01
-26.45
-21.66
-16.56
-11.05
-5.10
1.09
7.16
12.68
17.30
20.86
23.45
25.26
26.52
27.34
27.76
27.78
27.46
26.95
26.35
25.65
24.63
23.00
20.47
16.99
12.79
8.29
3.98
0.18
-3.07
-5.87
-8.40
-10.73
-12.78
-14.38
-15.41
-15.89
-15.95
-15.75
-15.40
-14.88
-14.09
-12.97
-11.61
-10.21
-9.06
-8.36
-8.09
-8.01
-7.74
-6.99
-5.62
-3.77
-1.78
-0.02
1.24
1.92
2.13
2.05
1.88
1.72
1.64
1.69
1.94
2.45
3.26
4.38
5.77
7.36
9.07
10.84
12.66
14.49
16.32
18.13
19.84
21.42
22.81
23.93
24.69
24.96
24.64
23.68
22.17
20.31
18.46
16.89
15.71
14.75
13.63
11.89
9.24
5.67
1.48
-2.88
-6.93
-10.29
-12.78
-14.38
-15.21
-15.47
-15.44
-15.36
-15.44
-15.79
-16.41
-17.21
-18.09
-18.90
-19.55
-19.99
-20.22
-20.32
-20.48
-20.98
-22.06
-23.90
-26.47
-29.54
-32.72
-35.60
-37.88
-39.36
-39.99
-39.81
-38.93
-37.51
-35.82
-34.15
-32.73
-31.65
-30.72
-29.56
-27.74
-24.98
-21.32
-17.06
-12.59
-8.19
-3.87
0.53
5.19
10.15
15.24
20.15
24.55
28.29
31.34
33.77
35.66
37.02
37.85
38.21
38.23
38.11
38.03
38.04
38.02
37.78
37.09
35.79
33.79
31.08
27.67
23.67
19.29
14.85
10.76
7.41
5.07
3.85
3.71
4.52
6.05
7.99
9.86
11.06
11.00
9.32
6.08
1.83
-2.50
-5.94
-7.78
-7.79
-6.30
-4.02
-1.83
-0.49
-0.43
-1.69
-3.95
-6.70
-9.48
-11.95
-14.00
-15.66
-17.02
-18.15
-19.10
-19.93
-20.77
-21.79
-23.15
-24.89
-26.88
-28.87
-30.57
-31.82
-32.66
-33.30
-34.06
-35.22
-36.87
-38.90
-40.97
-42.68
-43.62
-43.62
-42.72
-41.22
-39.46
-37.73
-36.07
-34.30
-32.13
-29.36
-25.95
-22.13
-18.23
-14.50
-11.01
-7.62
-4.09
-0.27
3.84
8.10
12.40
16.75
21.30
26.13
31.10
35.72
39.34
41.40
41.74
40.67
38.80
36.72
34.70
32.68
30.38
27.67
24.66
21.67
19.08
17.02
15.38
13.90
12.34
10.71
9.25
8.35
8.31
9.24
11.00
13.27
15.70
18.05
20.16
21.97
23.43
24.47
25.02
24.99
24.38
23.28
21.88
20.41
19.05
17.92
16.95
16.02
14.98
13.75
12.29
10.62
8.73
6.62
4.28
1.73
-0.98
-3.81
-6.72
-9.69
-12.59
-15.19
-17.19
-18.37
-18.70
-18.46
-18.12
-18.13
-18.72
-19.82
-21.15
-22.36
-23.23
-23.70
-23.82
-23.73
-23.56
-23.42
-23.42
-23.56
-23.84
-24.13
-24.34
-24.41
-24.42
-24.52
-24.94
-25.88
-27.42
-29.58
-32.23
-35.10
-37.79
-39.78
-40.46
-39.37
-36.28
-31.35
-25.08
-18.09
-10.98
-4.07
2.61
9.19
15.76
22.18
28.04
32.80
36.08
37.86
38.52
38.65
38.73
38.96
39.19
39.09
38.46
37.47
36.66
36.67
37.94
40.43
43.63
46.72
48.81
49.12
47.01
42.04
34.04
23.23
10.37
-3.32
-16.32
-27.24
-35.07
-39.48
-40.77
-39.63
-36.94
-33.51
-29.99
-26.83
-24.30
-22.54
-21.59
-21.45
-22.09
-23.42
-25.34
-27.72
-30.44
-33.42
-36.60
-39.91
-43.17
-46.14
-48.54
-50.19
-51.09
-51.48
-51.65
-51.90
-52.33
-52.93
-53.68
-54.65
-56.02
-57.96
-60.55
-63.61
-66.87
-70.12
-73.25
-76.20
-78.64
-79.86
-78.81
-74.56
-66.68
-55.53
-42.14
-27.73
-13.32
0.50
13.41
25.07
34.96
42.56
47.65
50.61
52.36
54.09
56.76
60.79
66.02
71.91
77.88
83.52
88.63
93.12
96.89
99.72
101.29
101.31
99.65
96.50
92.35
87.89
83.82
80.69
78.80
78.27
79.11
81.30
84.73
89.03
93.59
97.56
100.16
100.90
99.77
97.14
93.44
88.97
83.75
77.68
70.82
63.47
56.15
49.26
42.91
36.78
30.32
23.11
15.12
6.68
-1.65
-9.45
-16.60
-23.22
-29.47
-35.34
-40.61
-44.92
-47.92
-49.45
-49.52
-48.20
-45.57
-41.69
-36.64
-30.69
-24.30
-18.13
-12.89
-9.22
-7.63
-8.33
-11.28
-16.08
-22.05
-28.35
-34.21
-39.09
-42.81
-45.45
-47.15
-47.94
-47.82
-46.82
-45.21
-43.44
-41.94
-40.75
-39.45
-37.32
-33.83
-29.07
-23.82
-19.15
-15.91
-14.30
-13.92
-14.11
-14.48
-15.07
-16.22
-18.21
-20.99
-24.04
-26.68
-28.32
-28.72
-27.98
-26.38
-24.21
-21.60
-18.60
-15.22
-11.59
-7.95
-4.64
-2.01
-0.27
0.55
0.60
0.07
-0.82
-1.91
-3.05
-4.14
-5.07
-5.79
-6.31
-6.76
-7.26
-7.91
-8.71
-9.57
-10.37
-10.95
-11.26
-11.27
-11.02
-10.60
-10.16
-9.84
-9.75
-9.94
-10.41
-11.07
-11.78
-12.34
-12.51
-12.00
-10.57
-8.10
-4.72
-0.78
3.23
6.83
9.73
11.81
13.07
13.44
12.75
10.78
7.43
3.01
-1.77
-5.89
-8.38
-8.75
-7.16
-4.33
-1.20
1.49
3.49
4.97
6.23
7.45
8.50
9.08
8.94
8.16
7.26
7.03
8.37
11.91
17.82
25.70
34.53
42.88
49.24
52.49
52.22
48.87
43.46
37.22
31.10
25.54
20.45
15.41
9.95
3.87
-2.54
-8.42
-12.37
-12.77
-8.38
1.04
14.21
28.27
39.41
43.92
39.32
25.15
3.05
-23.75
-51.35
-76.11
-95.31
-107.55
-112.74
-111.92
-106.83
-99.52
-91.92
-85.48
-80.95
-78.30
-76.68
-74.55
-70.07
-61.39
-47.48
-28.53
-6.04
17.49
39.33
57.29
70.23
78.05
81.72
82.37
80.88
77.65
72.53
65.15
55.24
43.03
29.12
15.16
2.47
-8.09
-16.35
-22.68
-27.54
-31.19
-33.53
-34.83
-34.59
-33.25
-31.48
-29.90
-28.70
-27.60
-25.91
-22.92
-18.77
-12.69
-5.00
3.66
12.56
20.98
28.42
34.70
43.76
51.08
57.89
64.50
70.97
77.13
82.70
87.45
91.33
94.48
96.61
98.74
101.02
103.24
104.75
104.62
101.89
95.83
86.21
72.86
57.01
39.67
22.02
5.20
-9.89
-22.77
-33.48
-42.39
-50.20
-56.66
-61.46
-64.07
-64.17
-62.02
-58.46
-54.61
-51.45
-49.52
-48.60
-48.41
-48.73
-49.57
-50.98
-52.85
-54.77
-56.12
-56.37
-55.15
-52.58
-49.09
-45.20
-41.26
-37.34
-33.24
-28.57
-22.99
-16.40
-8.96
-1.20
6.18
12.45
17.04
19.59
19.98
18.26
14.54
8.92
1.58
-7.22
-17.09
-27.50
-37.81
-47.31
-55.14
-60.38
-62.18
-60.00
-53.97
-45.02
-34.81
-25.26
-18.09
-14.23
-13.67
-15.65
-19.04
-22.82
-26.29
-29.14
-31.29
-32.74
-33.54
-33.82
-33.89
-34.19
-35.18
-37.14
-40.07
-43.66
-47.49
-51.22
-54.73
-58.07
-61.20
-63.79
-65.13
-64.25
-60.23
-52.52
-41.08
-26.40
-9.31
9.22
28.20
46.78
64.30
80.36
94.85
107.90
119.71
130.41
139.94
148.01
154.29
158.50
160.60
160.79
159.42
156.90
153.59
149.69
145.29
140.32
134.50
127.35
118.19
106.44
91.76
74.40
55.22
35.54
16.80
0.12
-13.94
-25.46
-34.96
-43.13
-50.47
-57.21
-63.25
-68.31
-72.14
-74.69
-76.17
-77.03
-77.73
-78.64
-79.91
-81.48
-83.17
-84.74
-85.93
-86.39
-85.72
-83.59
-79.83
-74.55
-68.15
-61.21
-54.32
-47.83
-41.85
-36.22
-30.65
-24.84
-18.60
-11.98
-5.16
1.50
7.69
13.16
17.89
21.98
25.67
29.15
32.53
35.78
38.73
41.21
43.11
44.47
45.52
46.65
48.26
50.61
53.78
57.64
61.88
66.15
70.15
73.62
76.39
78.40
79.65
80.16
79.80
78.20
74.68
68.52
59.27
47.17
33.24
19.06
6.18
-4.49
-12.92
-19.83
-26.15
-32.44
-38.69
-44.44
-49.14
-52.54
-54.78
-56.26
-57.30
-57.96
-58.07
-57.36
-55.72
-53.28
-50.39
-47.48
-44.84
-42.51
-40.35
-38.13
-35.72
-33.22
-30.87
-28.95
-27.57
-26.54
-25.45
-23.88
-21.57
-18.61
-15.33
-12.19
-9.58
-7.74
-6.67
-6.26
-6.30
-6.57
-6.85
-6.94
-6.77
-6.31
-5.65
-4.90
-4.18
-3.57
-3.12
-2.83
-2.64
-2.46
-2.18
-1.69
-0.96
0.01
1.14
2.29
3.22
3.62
3.16
1.59
-1.13
-4.79
-8.95
-13.13
-16.99
-20.39
-23.38
-26.00
-28.14
-29.47
-29.61
-28.26
-25.41
-21.35
-16.57
-11.59
-6.79
-2.35
1.71
5.40
8.66
11.38
13.44
14.87
15.87
16.77
17.83
19.05
20.14
20.63
20.21
18.92
17.25
15.95
15.70
16.85
19.27
22.47
25.77
28.54
30.34
30.90
30.14
28.10
24.95
20.97
16.56
12.11
8.00
4.58
2.04
0.50
-0.06
0.29
1.43
3.22
5.55
8.29
11.22
14.08
16.54
18.33
19.28
19.34
18.63
17.35
15.73
14.01
12.37
10.85
9.42
7.88
6.00
3.61
0.66
-2.66
-6.02
-9.12
-11.76
-13.99
-16.02
-18.13
-20.50
-23.16
-25.92
-28.50
-30.57
-31.93
-32.51
-32.38
-31.71
-30.70
-29.52
-28.27
-27.05
-25.94
-25.00
-24.32
-23.90
-23.71
-23.65
-23.65
-23.67
-23.72
-23.78
-23.74
-23.40
-22.46
-20.66
-17.87
-14.21
-9.97
-5.58
-1.41
2.26
5.29
7.66
9.41
10.70
11.75
12.88
14.47
16.82
20.05
24.03
28.42
32.77
36.73
40.12
42.97
45.43
47.66
49.72
51.57
53.08
54.12
54.58
54.38
53.46
51.75
49.29
46.16
42.54
38.67
34.73
30.85
27.04
23.28
19.57
15.94
12.50
9.36
6.58
4.12
1.83
-0.48
-2.97
-5.70
-8.58
-11.43
-13.99
-16.10
-17.61
-18.46
-18.54
-17.75
-16.01
-13.39
-10.16
-6.82
-3.93
-2.00
-1.22
-1.51
-2.55
-3.93
-5.31
-6.52
-7.48
-8.20
-8.66
-8.84
-8.74
-8.43
-8.05
-7.72
-7.52
-7.41
-7.28
-7.03
-6.64
-6.17
-5.77
-5.54
-5.56
-5.81
-6.19
-6.59
-6.81
-6.70
-6.16
-5.20
-3.97
-2.69
-1.61
-0.91
-0.70
-0.94
-1.58
-2.50
-3.61
-4.87
-6.26
-7.80
-9.47
-11.23
-12.92
-14.28
-15.00
-14.82
-13.62
-11.45
-8.54
-5.24
-1.94
0.99
3.26
4.73
5.41
5.41
4.93
4.21
3.41
2.65
1.95
1.30
0.70
0.21
-0.07
-0.04
0.32
0.92
1.58
2.08
2.27
2.11
1.66
1.08
0.49
0.00
-0.37
-0.67
-0.97
-1.33
-1.80
-2.40
-3.14
-3.99
-4.95
-5.96
-6.97
-7.95
-8.85
-9.62
-10.26
-10.78
-11.26
-11.82
-12.56
-13.46
-14.38
-14.94
-14.70
-13.30
-10.65
-6.97
-2.78
1.33
4.87
7.55
9.31
10.23
10.42
10.00
9.08
7.79
6.29
4.73
3.31
2.17
1.42
1.11
1.16
1.44
1.76
1.95
1.90
1.60
1.08
0.43
-0.30
-0.99
-1.58
-2.02
-2.30
-2.50
-2.75
-3.20
-3.87
-4.73
-5.60
-6.33
-6.82
-7.15
-7.55
-8.31
-9.63
-11.46
-13.48
-15.15
-15.86
-15.13
-12.79
-8.96
-4.09
1.27
6.52
11.20
14.99
17.78
19.58
20.50
20.70
20.34
19.60
18.67
17.72
16.88
16.19
15.61
15.02
14.34
13.54
12.73
12.07
11.72
11.70
11.90
12.10
12.08
11.68
10.89
9.80
8.63
7.57
6.82
6.48
6.55
6.96
7.49
7.96
8.19
8.19
8.09
8.20
8.80
10.09
12.00
14.20
16.13
17.22
17.07
15.62
13.22
10.48
8.09
6.52
5.90
5.98
6.30
6.39
5.98
5.03
3.74
2.34
1.05
-0.05
-0.95
-1.72
-2.38
-2.95
-3.42
-3.83
-4.21
-4.65
-5.22
-5.96
-6.84
-7.79
-8.70
-9.51
-10.21
-10.94
-11.89
-13.30
-15.32
-18.01
-21.29
-24.92
-28.54
-31.71
-33.97
-34.94
-34.47
-32.63
-29.71
-26.11
-22.23
-18.40
-14.90
-11.96
-9.82
-8.68
-8.62
-9.56
-11.19
-13.03
-14.55
-15.28
-14.88
-13.25
-10.51
-7.02
-3.26
0.32
3.42
5.94
7.94
9.52
10.70
11.37
11.40
10.72
9.45
7.91
6.45
5.36
4.75
4.54
4.57
4.66
4.70
4.64
4.46
4.14
3.72
3.24
2.78
2.40
2.11
1.81
1.40
0.78
-0.03
-0.93
-1.77
-2.47
-3.05
-3.60
-4.19
-4.85
-5.49
-6.00
-6.33
-6.54
-6.73
-7.06
-7.60
-8.37
-9.31
-10.39
-11.61
-12.94
-14.32
-15.55
-16.35
-16.36
-15.25
-12.84
-9.23
-4.75
0.00
4.41
7.97
10.43
11.86
12.55
12.85
13.08
13.43
13.94
14.61
15.44
16.42
17.57
18.93
20.50
22.26
24.21
26.26
28.35
30.36
32.19
33.74
34.90
35.50
35.41
34.48
32.66
30.08
26.96
23.60
20.29
17.13
14.10
11.04
7.87
4.62
1.49
-1.22
-3.27
-4.53
-5.03
-4.94
-4.46
-3.83
-3.29
-3.11
-3.54
-4.73
-6.63
-8.98
-11.30
-13.08
-13.92
-13.68
-12.56
-11.02
-9.68
-9.11
-9.68
-11.44
-14.12
-17.21
-20.10
-22.21
-23.18
-22.89
-21.44
-19.02
-15.87
-12.15
-8.02
-3.66
0.70
4.74
8.20
10.88
12.81
14.12
15.05
15.77
16.35
16.71
16.73
16.30
15.38
13.96
12.07
9.76
7.10
4.24
1.35
-1.40
-3.98
-6.49
-9.18
-12.27
-15.87
-19.82
-23.75
-27.13
-29.52
-30.62
-30.44
-29.19
-27.25
-24.98
-22.66
-20.40
-18.12
-15.66
-12.79
-9.36
-5.25
-0.50
4.79
10.31
15.68
20.38
23.89
25.80
25.93
24.37
21.41
17.46
12.90
8.02
3.09
-1.72
-6.18
-10.14
-13.47
-16.13
-18.19
-19.66
-20.55
-20.78
-20.25
-18.89
-16.77
-14.10
-11.15
-8.21
-5.50
-3.16
-1.22
0.34
1.56
2.48
3.11
3.45
3.54
3.42
3.19
2.92
2.62
2.22
1.62
0.67
-0.74
-2.71
-5.27
-8.46
-12.23
-16.41
-20.68
-24.48
-27.27
-28.58
-28.27
-26.54
-23.90
-20.94
-18.14
-15.72
-13.64
-11.71
-9.74
-7.57
-5.18
-2.55
0.27
3.22
6.21
9.13
11.82
14.23
16.39
18.42
20.51
22.76
25.20
27.70
30.09
32.15
33.70
34.63
34.82
34.22
32.79
30.54
27.52
23.89
19.87
15.77
11.92
8.65
6.21
4.67
3.92
3.65
3.45
2.85
1.52
-0.73
-3.84
-7.52
-11.35
-14.84
-17.60
-19.40
-20.15
-19.91
-18.86
-17.27
-15.49
-13.97
-13.11
-13.15
-14.08
-15.52
-16.86
-17.38
-16.53
-14.11
-10.35
-5.78
-1.09
3.16
6.60
9.10
10.71
11.54
11.69
11.29
10.49
9.47
8.43
7.51
6.81
6.36
6.14
6.10
6.25
6.55
6.93
7.34
7.69
7.92
7.95
7.74
7.28
6.57
5.66
4.63
3.57
2.55
1.59
0.70
-0.17
-1.01
-1.87
-2.74
-3.66
-4.60
-5.53
-6.38
-7.04
-7.45
-7.64
-7.72
-7.90
-8.35
-9.14
-10.23
-11.42
-12.46
-13.09
-13.06
-12.18
-10.40
-7.84
-4.76
-1.55
1.37
3.72
5.39
6.48
7.17
7.58
7.73
7.53
6.93
5.96
4.83
3.79
3.07
2.74
2.77
3.04
3.40
3.77
4.09
4.32
4.41
4.35
4.08
3.62
3.00
2.27
1.48
0.69
-0.06
-0.73
-1.28
-1.70
-1.97
-2.09
-2.05
-1.89
-1.62
-1.33
-1.09
-0.95
-0.93
-0.97
-0.99
-0.91
-0.72
-0.45
-0.18
0.03
0.15
0.20
0.20
0.18
0.12
0.01
-0.17
-0.46
-0.88
-1.36
-1.77
-1.85
-1.26
0.27
2.87
6.43
10.65
15.07
19.26
22.80
25.40
26.80
26.83
25.42
22.64
18.73
14.02
8.92
3.76
-1.18
-5.73
-9.75
-13.16
-15.92
-18.02
-19.51
-20.46
-20.99
-21.25
-21.38
-21.50
-21.69
-21.93
-22.09
-21.97
-21.36
-20.07
-18.03
-15.30
-12.07
-8.66
-5.42
-2.70
-0.79
0.25
0.48
0.16
-0.44
-1.08
-1.69
-2.33
-3.19
-4.48
-6.35
-8.76
-11.47
-14.03
-15.83
-16.26
-14.90
-11.62
-6.70
-0.74
5.49
11.24
15.98
19.45
21.67
22.87
23.36
23.43
23.19
22.59
21.49
19.74
17.33
14.46
11.49
8.86
6.91
5.79
5.42
5.58
6.00
6.44
6.70
6.66
6.23
5.38
4.19
2.83
1.52
0.47
-0.22
-0.60
-0.84
-1.19
-1.81
-2.78
-4.01
-5.35
-6.62
-7.68
-8.48
-9.02
-9.32
-9.44
-9.41
-9.28
-9.13
-9.02
-9.06
-9.34
-9.96
-10.96
-12.29
-13.77
-15.11
-15.96
-16.00
-15.05
-13.08
-10.24
-6.78
-3.02
0.71
4.07
6.78
8.65
9.63
9.82
9.41
8.67
7.82
7.04
6.40
5.95
5.73
5.77
6.08
6.63
7.31
7.97
8.45
8.65
8.56
8.23
7.72
7.10
6.35
5.43
4.32
3.09
1.86
0.80
0.05
-0.37
-0.51
-0.52
-0.58
-0.80
-1.22
-1.79
-2.38
-2.88
-3.23
-3.48
-3.73
-4.15
-4.86
-5.95
-7.43
-9.29
-11.40
-13.60
-15.56
-16.92
-17.32
-16.56
-14.71
-12.10
-9.21
-6.44
-3.97
-1.66
0.83
3.86
7.59
11.90
16.41
20.65
24.22
26.94
28.80
29.92
30.45
30.50
30.14
29.43
28.50
27.52
26.67
26.08
25.77
25.61
25.34
24.67
23.39
21.41
18.88
16.05
13.18
10.44
7.83
5.19
2.37
-0.71
-3.97
-7.23
-10.30
-13.08
-15.64
-18.06
-20.43
-22.71
-24.74
-26.38
-27.54
-28.30
-28.90
-29.61
-30.68
-32.21
-34.16
-36.38
-38.70
-40.93
-42.94
-44.60
-45.82
-46.54
-46.74
-46.44
-45.77
-44.92
-44.13
-43.62
-43.52
-43.86
-44.56
-45.49
-46.45
-47.14
-47.10
-45.71
-42.32
-36.52
-28.31
-18.20
-7.08
4.04
14.30
23.18
30.45
36.16
40.46
43.66
46.04
47.95
49.60
51.10
52.37
53.29
53.72
53.60
52.92
51.69
49.94
47.69
45.12
42.48
40.11
38.27
37.02
36.13
35.19
33.72
31.41
28.17
24.17
19.68
14.93
10.00
4.87
-0.58
-6.41
-12.58
-18.90
-25.11
-30.84
-35.64
-38.98
-40.35
-39.38
-36.02
-30.60
-23.87
-16.73
-10.04
-4.30
0.33
4.02
7.01
9.48
11.47
12.91
13.76
14.05
13.96
13.73
13.55
13.53
13.65
13.83
13.97
13.98
13.86
13.64
13.39
13.14
12.84
12.39
11.67
10.64
9.37
8.02
6.78
5.75
4.92
4.16
3.31
2.30
1.17
0.07
-0.83
-1.43
-1.73
-1.86
-1.96
-2.21
-2.65
-3.28
-4.02
-4.78
-5.52
-6.23
-6.92
-7.59
-8.26
-8.97
-9.78
-10.76
-11.85
-12.83
-13.32
-12.93
-11.40
-8.75
-5.35
-1.72
1.61
4.30
6.22
7.47
8.15
8.39
8.26
7.85
7.27
6.67
6.19
5.92
5.82
5.79
5.70
5.48
5.19
4.93
4.84
5.00
5.41
5.94
6.40
6.62
6.45
5.87
4.94
3.77
2.48
1.20
0.01
-1.01
-1.80
-2.35
-2.70
-2.94
-3.19
-3.57
-4.11
-4.75
-5.35
-5.81
-6.11
-6.31
-6.52
-6.87
-7.39
-8.11
-9.01
-10.12
-11.38
-12.68
-13.77
-14.35
-14.14
-12.97
-10.87
-8.05
-4.84
-1.62
1.32
3.76
5.60
6.83
7.51
7.74
7.60
7.15
6.49
5.76
5.12
4.78
4.84
5.30
6.00
6.71
7.24
7.49
7.48
7.36
7.28
7.31
7.43
7.52
7.43
7.03
6.32
5.37
4.33
3.35
2.55
2.00
1.71
1.66
1.82
2.13
2.49
2.81
2.96
2.87
2.50
1.89
1.13
0.35
-0.28
-0.64
-0.67
-0.47
-0.23
-0.18
-0.51
-1.28
-2.32
-3.41
-4.28
-4.79
-4.97
-4.98
-5.02
-5.30
-5.93
-6.88
-8.06
-9.27
-10.27
-10.91
-11.16
-11.17
-11.22
-11.64
-12.72
-14.58
-17.19
-20.35
-23.80
-27.18
-30.12
-32.26
-33.26
-32.84
-30.87
-27.37
-22.53
-16.70
-10.28
-3.72
2.61
8.46
13.66
18.08
21.60
24.10
25.47
25.70
24.96
23.58
21.94
20.41
19.15
18.15
17.24
16.28
15.19
13.99
12.77
11.61
10.61
9.83
9.29
8.99
8.86
8.75
8.44
7.81
6.84
5.64
4.46
3.51
2.88
2.51
2.23
1.83
1.19
0.31
-0.72
-1.71
-2.42
-2.60
-2.03
-0.57
1.78
4.77
7.98
10.85
12.86
13.68
13.26
11.82
9.71
7.30
4.83
2.37
-0.16
-2.90
-6.01
-9.54
-13.42
-17.38
-21.00
-23.71
-24.90
-24.11
-21.12
-16.11
-9.64
-2.55
4.31
10.27
15.03
18.67
21.47
23.72
25.50
26.64
26.84
25.85
23.64
20.41
16.52
12.36
8.23
4.33
0.79
-2.27
-4.72
-6.39
-7.21
-7.20
-6.54
-5.48
-4.30
-3.25
-2.55
-2.31
-2.61
-3.44
-4.72
-6.29
-7.98
-9.63
-11.14
-12.51
-13.76
-14.90
-15.85
-16.52
-16.83
-16.79
-16.55
-16.29
-16.19
-16.35
-16.68
-16.98
-16.97
-16.36
-14.99
-12.87
-10.23
-7.43
-4.83
-2.69
-1.06
0.17
1.14
1.94
2.56
2.96
3.11
3.09
3.00
3.01
3.23
3.63
4.16
4.66
5.01
5.09
4.90
4.49
4.02
3.69
3.70
4.13
4.91
5.86
6.73
7.30
7.51
7.40
7.16
6.97
6.94
7.06
7.21
7.21
6.92
6.25
5.15
3.64
1.75
-0.39
-2.60
-4.66
-6.42
-7.85
-9.13
-10.51
-12.25
-14.44
-16.90
-19.21
-20.74
-20.88
-19.20
-15.68
-10.68
-4.89
0.86
5.84
9.60
11.99
13.06
12.98
11.95
10.13
7.72
4.93
1.96
-1.08
-4.25
-7.74
-11.87
-16.87
-22.75
-29.15
-35.40
-40.59
-43.81
-44.40
-42.11
-37.24
-30.47
-22.74
-14.92
-7.62
-1.12
4.56
9.54
13.84
17.33
19.80
21.04
21.08
20.17
18.78
17.40
16.32
15.65
15.24
14.87
14.38
13.75
13.07
12.45
12.00
11.72
11.56
11.44
11.30
11.15
11.05
10.98
10.82
10.32
9.16
7.06
3.97
0.09
-4.21
-8.54
-12.67
-16.55
-20.26
-23.82
-27.02
-29.49
-30.73
-30.36
-28.27
-24.65
-19.93
-14.62
-9.20
-4.04
0.61
4.63
7.96
10.62
12.66
14.18
15.33
16.32
17.35
18.54
19.89
21.24
22.37
23.14
23.59
23.92
24.41
25.26
26.45
27.77
28.86
29.46
29.39
28.67
27.35
25.48
23.07
20.13
16.65
12.66
8.20
3.35
-1.78
-7.04
-12.21
-17.08
-21.57
-25.67
-29.49
-33.12
-36.49
-39.36
-41.38
-42.18
-41.55
-39.48
-36.18
-31.94
-27.09
-21.89
-16.49
-11.04
-5.62
-0.38
4.48
8.75
12.21
14.71
16.22
16.73
16.30
14.95
12.69
9.59
5.86
1.85
-1.94
-5.06
-7.15
-8.04
-7.69
-6.18
-3.58
-0.04
4.20
8.71
12.96
16.37
18.50
19.13
18.32
16.27
13.29
9.70
5.81
1.97
-1.45
-4.15
-5.96
-6.92
-7.29
-7.48
-7.83
-8.63
-9.95
-11.74
-13.83
-15.95
-17.83
-19.18
-19.74
-19.38
-18.09
-16.02
-13.42
-10.63
-7.98
-5.71
-4.03
-3.00
-2.64
-2.88
-3.58
-4.61
-5.81
-7.10
-8.43
-9.83
-11.27
-12.71
-13.99
-14.87
-15.11
-14.55
-13.15
-11.05
-8.43
-5.54
-2.62
0.14
2.57
4.58
6.10
7.16
7.82
8.18
8.32
8.30
8.11
7.76
7.23
6.58
5.87
5.21
4.70
4.39
4.27
4.29
4.29
4.12
3.58
2.54
0.97
-0.93
-2.82
-4.23
-4.71
-4.00
-2.14
0.56
3.60
6.51
8.92
10.71
11.91
12.63
12.96
12.90
12.44
11.58
10.45
9.23
8.14
7.35
6.90
6.76
6.85
7.07
7.36
7.67
7.93
8.06
8.00
7.75
7.37
6.94
6.50
6.04
5.49
4.80
4.00
3.16
2.37
1.65
0.93
0.11
-0.89
-2.01
-3.10
-3.94
-4.42
-4.61
-4.72
-5.02
-5.70
-6.78
-8.14
-9.61
-11.01
-12.22
-13.07
-13.34
-12.82
-11.34
-8.95
-5.88
-2.57
0.56
3.24
5.34
6.89
7.95
8.56
8.71
8.46
7.93
7.40
7.12
7.25
7.79
8.55
9.29
9.82
10.05
10.05
9.92
9.79
9.71
9.63
9.45
9.00
8.15
6.83
5.16
3.33
1.62
0.18
-0.94
-1.90
-2.88
-4.03
-5.31
-6.58
-7.61
-8.28
-8.62
-8.76
-8.92
-9.29
-9.96
-10.93
-12.13
-13.43
-14.67
-15.71
-16.35
-16.42
-15.74
-14.18
-11.78
-8.70
-5.29
-1.99
0.84
2.98
4.40
5.27
5.79
6.12
6.33
6.47
6.55
6.67
6.90
7.30
7.82
8.34
8.72
8.89
8.88
8.84
8.92
9.25
9.79
10.39
10.86
11.04
10.86
10.34
9.61
8.77
7.95
7.24
6.66
6.24
5.96
5.75
5.54
5.22
4.73
4.02
3.15
2.23
1.37
0.68
0.20
-0.15
-0.50
-1.02
-1.80
-2.86
-4.11
-5.39
-6.57
-7.58
-8.45
-9.30
-10.26
-11.45
-12.91
-14.60
-16.36
-17.92
-18.93
-19.06
-18.11
-16.12
-13.33
-10.11
-6.84
-3.78
-1.05
1.28
3.15
4.47
5.15
5.17
4.67
3.93
3.26
2.93
3.01
3.44
4.03
4.57
4.95
5.17
5.32
5.49
5.68
5.80
5.69
5.25
4.54
3.76
3.12
2.74
2.56
2.36
1.90
1.05
-0.13
-1.48
-2.78
-3.89
-4.76
-5.43
-5.98
-6.48
-7.06
-7.85
-8.96
-10.46
-12.30
-14.28
-16.08
-17.37
-17.83
-17.30
-15.78
-13.42
-10.50
-7.30
-4.10
-1.08
1.68
4.11
6.20
7.95
9.33
10.35
11.02
11.38
11.47
11.35
11.13
10.90
10.77
10.82
11.01
11.26
11.46
11.52
11.40
11.14
10.78
10.38
9.96
9.51
9.03
8.50
7.84
6.95
5.74
4.21
2.44
0.68
-0.89
-2.12
-3.07
-3.96
-5.09
-6.67
-8.73
-11.05
-13.25
-14.91
-15.69
-15.44
-14.13
-11.90
-8.92
-5.43
-1.74
1.82
4.91
7.30
8.92
9.86
10.35
10.60
10.75
10.80
10.73
10.51
10.16
9.77
9.46
9.32
9.41
9.74
10.28
10.93
11.56
12.03
12.18
11.94
11.29
10.28
9.01
7.59
6.18
4.91
3.86
3.00
2.19
1.20
-0.12
-1.77
-3.54
-5.13
-6.30
-6.99
-7.38
-7.78
-8.48
-9.63
-11.19
-12.94
-14.59
-15.79
-16.23
-15.62
-13.85
-10.97
-7.25
-3.14
0.81
4.18
6.70
8.34
9.25
9.61
9.61
9.35
8.90
8.35
7.83
7.52
7.53
7.85
8.35
8.81
9.05
9.03
8.88
8.75
8.78
8.92
9.06
9.02
8.68
8.02
7.13
6.08
4.97
3.86
2.74
1.60
0.42
-0.83
-2.13
-3.43
-4.65
-5.69
-6.48
-7.03
-7.42
-7.79
-8.34
-9.20
-10.46
-12.12
-14.06
-16.03
-17.71
-18.70
-18.67
-17.43
-15.01
-11.70
-7.92
-4.16
-0.84
1.83
3.87
5.39
6.59
7.59
8.36
8.82
8.84
8.43
7.71
6.97
6.50
6.49
6.95
7.74
8.59
9.26
9.61
9.65
9.47
9.23
8.98
8.71
8.34
7.76
6.97
6.08
5.24
4.57
4.06
3.58
2.91
1.92
0.65
-0.70
-1.86
-2.67
-3.17
-3.55
-4.06
-4.88
-5.99
-7.24
-8.45
-9.51
-10.49
-11.53
-12.76
-14.13
-15.37
-16.09
-15.91
-14.60
-12.22
-9.02
-5.41
-1.77
1.55
4.37
6.55
8.05
8.88
9.11
8.86
8.32
7.70
7.17
6.88
6.86
7.07
7.38
7.62
7.70
7.62
7.48
7.46
7.64
7.96
8.19
8.03
7.25
5.84
3.97
1.99
0.22
-1.14
-2.07
-2.72
-3.29
-3.95
-4.80
-5.85
-7.02
-8.19
-9.26
-10.20
-11.02
-11.81
-12.63
-13.54
-14.53
-15.52
-16.45
-17.21
-17.71
-17.82
-17.32
-16.02
-13.79
-10.70
-7.03
-3.26
0.11
2.73
4.49
5.55
6.21
6.74
7.29
7.82
8.20
8.31
8.11
7.72
7.31
7.07
7.12
7.48
8.09
8.87
9.72
10.49
11.03
11.17
10.84
10.08
9.05
8.01
7.16
6.57
6.21
5.90
5.46
4.75
3.72
2.40
0.91
-0.57
-1.85
-2.79
-3.38
-3.72
-3.99
-4.40
-5.01
-5.79
-6.62
-7.41
-8.09
-8.71
-9.36
-10.13
-11.09
-12.29
-13.74
-15.38
-16.99
-18.23
-18.68
-18.01
-16.07
-13.00
-9.19
-5.13
-1.30
2.01
4.67
6.69
8.14
9.04
9.43
9.34
8.85
8.11
7.29
6.55
5.99
5.60
5.37
5.29
5.36
5.60
5.99
6.45
6.85
7.04
6.96
6.61
6.07
5.42
4.71
3.93
3.07
2.14
1.16
0.17
-0.81
-1.81
-2.82
-3.82
-4.72
-5.45
-5.97
-6.32
-6.66
-7.20
-8.11
-9.43
-11.02
-12.63
-13.88
-14.44
-14.08
-12.72
-10.45
-7.50
-4.19
-0.93
1.93
4.14
5.62
6.50
7.02
7.42
7.85
8.28
8.54
8.49
8.07
7.39
6.66
6.11
5.83
5.80
5.89
6.02
6.16
6.33
6.52
6.66
6.58
6.13
5.26
4.05
2.73
1.52
0.58
-0.12
-0.73
-1.43
-2.31
-3.36
-4.44
-5.38
-6.11
-6.62
-7.00
-7.32
-7.62
-7.93
-8.23
-8.56
-9.03
-9.77
-10.90
-12.47
-14.38
-16.36
-17.99
-18.83
-18.52
-16.90
-14.12
-10.55
-6.69
-2.98
0.33
3.12
5.39
7.15
8.38
9.08
9.26
9.02
8.54
8.02
7.65
7.54
7.75
8.21
8.79
9.35
9.76
10.02
10.22
10.47
10.84
11.32
11.77
12.04
12.02
11.73
11.23
10.58
9.82
8.90
7.77
6.40
4.86
3.31
1.90
0.71
-0.30
-1.27
-2.34
-3.56
-4.88
-6.16
-7.27
-8.13
-8.75
-9.23
-9.69
-10.29
-11.20
-12.61
-14.61
-17.05
-19.53
-21.44
-22.15
-21.25
-18.72
-14.91
-10.45
-5.96
-1.93
1.37
3.88
5.61
6.63
7.05
6.96
6.51
5.86
5.16
4.53
4.10
3.92
3.97
4.17
4.39
4.52
4.51
4.45
4.44
4.59
4.89
5.23
5.42
5.30
4.84
4.09
3.21
2.34
1.57
0.86
0.11
-0.80
-1.96
-3.32
-4.75
-6.07
-7.15
-7.94
-8.51
-8.99
-9.55
-10.35
-11.48
-12.99
-14.76
-16.52
-17.86
-18.33
-17.58
-15.51
-12.32
-8.49
-4.53
-0.90
2.18
4.66
6.60
8.03
8.96
9.36
9.22
8.63
7.78
6.92
6.32
6.13
6.40
6.99
7.71
8.36
8.85
9.20
9.52
9.92
10.41
10.91
11.20
11.11
10.56
9.62
8.48
7.34
6.34
5.52
4.83
4.17
3.49
2.78
2.06
1.37
0.75
0.21
-0.26
-0.66
-1.03
-1.44
-2.03
-2.89
-4.07
-5.53
-7.12
-8.68
-10.15
-11.57
-13.12
-15.00
-17.22
-19.60
-21.69
-22.98
-23.01
-21.59
-18.84
-15.18
-11.13
-7.18
-3.61
-0.52
2.11
4.32
6.13
7.49
8.33
8.65
8.51
8.08
7.59
7.27
7.26
7.63
8.29
9.14
10.03
10.83
11.45
11.86
12.00
11.83
11.30
10.39
9.15
7.71
6.27
4.99
3.95
3.14
2.45
1.73
0.87
-0.21
-1.49
-2.95
-4.49
-6.00
-7.38
-8.57
-9.58
-10.52
-11.58
-12.88
-14.39
-15.91
-17.07
-17.52
-16.99
-15.43
-12.96
-9.83
-6.35
-2.82
0.50
3.39
5.71
7.43
8.58
9.23
9.47
9.34
8.93
8.38
7.87
7.59
7.68
8.11
8.76
9.45
10.03
10.45
10.72
10.91
11.07
11.18
11.18
11.02
10.64
10.04
9.20
8.14
6.89
5.51
4.09
2.70
1.38
0.13
-1.07
-2.24
-3.36
-4.39
-5.27
-6.01
-6.70
-7.46
-8.40
-9.54
-10.79
-12.00
-13.05
-13.93
-14.81
-15.89
-17.33
-19.12
-21.00
-22.56
-23.33
-22.98
-21.41
-18.76
-15.32
-11.40
-7.33
-3.34
0.33
3.51
6.04
7.84
8.95
9.49
9.66
9.63
9.54
9.47
9.45
9.50
9.66
9.97
10.45
11.06
11.70
12.22
12.53
12.60
12.48
12.26
12.01
11.73
11.37
10.88
10.29
9.64
9.01
8.39
7.69
6.79
5.57
4.08
2.45
0.90
-0.36
-1.24
-1.78
-2.14
-2.53
-3.11
-3.96
-5.05
-6.29
-7.54
-8.65
-9.57
-10.30
-10.93
-11.66
-12.68
-14.15
-16.10
-18.39
-20.66
-22.45
-23.30
-22.87
-21.07
-18.03
-14.05
-9.56
-4.95
-0.62
3.13
6.10
8.17
9.32
9.64
9.30
8.54
7.62
6.80
6.27
6.16
6.48
7.16
8.01
8.88
9.61
10.13
10.42
10.50
10.42
10.19
9.86
9.47
9.03
8.55
7.99
7.28
6.40
5.32
4.03
2.60
1.11
-0.31
-1.54
-2.49
-3.14
-3.57
-3.92
-4.38
-5.07
-6.05
-7.33
-8.84
-10.52
-12.29
-14.00
-15.43
-16.33
-16.42
-15.49
-13.46
-10.44
-6.74
-2.76
1.03
4.29
6.83
8.63
9.81
10.51
10.87
10.92
10.70
10.23
9.60
8.97
8.50
8.34
8.53
9.04
9.76
10.56
11.31
11.90
12.28
12.37
12.14
11.54
10.63
9.51
8.35
7.31
6.44
5.70
4.95
4.08
3.01
1.75
0.35
-1.12
-2.59
-3.99
-5.26
-6.32
-7.17
-7.86
-8.50
-9.19
-9.98
-10.82
-11.66
-12.43
-13.15
-13.92
-14.87
-16.09
-17.50
-18.90
-19.94
-20.21
-19.39
-17.32
-14.11
-10.05
-5.64
-1.35
2.39
5.32
7.32
8.40
8.68
8.36
7.69
6.94
6.29
5.88
5.72
5.79
6.07
6.58
7.34
8.34
9.46
10.55
11.45
12.04
12.27
12.19
11.88
11.42
10.86
10.25
9.59
8.86
8.04
7.16
6.28
5.47
4.79
4.17
3.47
2.52
1.24
-0.34
-2.08
-3.75
-5.19
-6.34
-7.21
-7.91
-8.55
-9.29
-10.29
-11.71
-13.59
-15.86
-18.19
-20.14
-21.20
-21.00
-19.37
-16.46
-12.63
-8.40
-4.27
-0.62
2.32
4.55
6.14
7.24
7.95
8.34
8.43
8.24
7.83
7.30
6.77
6.37
6.20
6.31
6.67
7.19
7.75
8.23
8.52
8.55
8.32
7.82
7.07
6.11
4.98
3.76
2.51
1.26
-0.00
-1.37
-2.92
-4.65
-6.46
-8.19
-9.67
-10.82
-11.70
-12.49
-13.41
-14.62
-16.19
-18.00
-19.79
-21.19
-21.78
-21.23
-19.37
-16.32
-12.39
-8.03
-3.72
0.19
3.53
6.24
8.35
9.88
10.88
11.39
11.48
11.26
10.85
10.38
9.95
9.64
9.51
9.61
9.96
10.56
11.34
12.21
13.00
13.52
13.62
13.24
12.42
11.33
10.18
9.12
8.18
7.26
6.20
4.89
3.34
1.68
0.07
-1.34
-2.54
-3.57
-4.51
-5.45
-6.43
-7.46
-8.54
-9.64
-10.76
-11.89
-13.09
-14.47
-16.16
-18.24
-20.58
-22.86
-24.57
-25.16
-24.23
-21.64
-17.60
-12.59
-7.22
-2.10
2.33
5.83
8.42
10.20
11.36
12.03
12.31
12.34
12.26
12.24
12.40
12.79
13.33
13.90
14.38
14.76
15.08
15.39
15.73
16.02
16.14
15.99
15.50
14.70
13.65
12.48
11.27
10.12
9.10
8.22
7.40
6.47
5.30
3.79
2.02
0.22
-1.34
-2.48
-3.17
-3.59
-3.98
-4.57
-5.43
-6.51
-7.71
-8.92
-10.10
-11.28
-12.49
-13.77
-15.16
-16.65
-18.19
-19.62
-20.67
-21.01
-20.35
-18.54
-15.64
-11.91
-7.74
-3.53
0.37
3.72
6.38
8.30
9.46
9.90
9.77
9.25
8.58
8.00
7.67
7.65
7.85
8.13
8.34
8.38
8.24
7.98
7.67
7.33
6.97
6.51
5.89
5.06
4.00
2.75
1.37
-0.07
-1.53
-2.97
-4.37
-5.69
-6.91
-8.02
-9.03
-9.98
-10.95
-12.05
-13.44
-15.22
-17.39
-19.83
-22.20
-24.03
-24.84
-24.28
-22.22
-18.80
-14.39
-9.46
-4.51
0.04
3.92
6.98
9.19
10.65
11.49
11.87
11.92
11.72
11.33
10.80
10.24
9.75
9.47
9.44
9.67
10.13
10.76
11.51
12.33
13.15
13.89
14.40
14.59
14.38
13.77
12.81
11.59
10.20
8.74
7.27
5.85
4.52
3.27
2.05
0.78
-0.61
-2.15
-3.79
-5.45
-7.04
-8.47
-9.74
-10.92
-12.09
-13.39
-14.91
-16.77
-19.03
-21.68
-24.54
-27.22
-29.14
-29.67
-28.33
-25.00
-20.02
-14.04
-7.83
-2.07
2.88
6.88
9.95
12.12
13.45
14.01
13.97
13.59
13.21
13.08
13.32
13.90
14.68
15.50
16.20
16.68
16.88
16.75
16.33
15.72
15.05
14.48
14.07
13.79
13.53
13.12
12.42
11.33
9.83
7.99
5.97
3.99
2.29
1.05
0.32
-0.03
-0.25
-0.64
-1.40
-2.60
-4.15
-5.86
-7.56
-9.11
-10.50
-11.77
-13.06
-14.47
-16.14
-18.15
-20.54
-23.26
-26.09
-28.60
-30.19
-30.24
-28.35
-24.52
-19.20
-13.16
-7.20
-1.92
2.39
5.69
8.06
9.58
10.29
10.27
9.72
8.94
8.26
7.94
8.04
8.50
9.14
9.81
10.41
10.92
11.37
11.79
12.16
12.43
12.53
12.36
11.89
11.14
10.22
9.22
8.19
7.12
5.88
4.37
2.55
0.52
-1.50
-3.27
-4.65
-5.64
-6.40
-7.21
-8.32
-9.91
-12.02
-14.55
-17.22
-19.64
-21.31
-21.77
-20.69
-17.99
-13.91
-8.92
-3.58
1.55
6.08
9.77
12.54
14.38
15.38
15.65
15.34
14.62
13.67
12.69
11.87
11.38
11.32
11.71
12.47
13.44
14.41
15.23
15.75
15.92
15.74
15.25
14.54
13.69
12.77
11.80
10.74
9.54
8.16
6.61
4.95
3.29
1.72
0.28
-1.02
-2.23
-3.42
-4.64
-5.93
-7.31
-8.73
-10.15
-11.48
-12.64
-13.63
-14.54
-15.63
-17.19
-19.44
-22.36
-25.53
-28.24
-29.66
-29.13
-26.47
-21.96
-16.31
-10.36
-4.81
-0.14
3.49
6.11
7.88
9.01
9.66
10.01
10.19
10.33
10.50
10.75
11.09
11.49
11.91
12.32
12.68
13.05
13.49
14.06
14.78
15.56
16.26
16.66
16.61
16.04
15.01
13.70
12.35
11.15
10.20
9.44
8.68
7.73
6.46
4.88
3.13
1.39
-0.15
-1.39
-2.36
-3.13
-3.83
-4.61
-5.57
-6.80
-8.28
-9.95
-11.67
-13.30
-14.73
-15.96
-17.12
-18.44
-20.08
-22.04
-24.06
-25.64
-26.18
-25.21
-22.54
-18.35
-13.16
-7.64
-2.43
2.05
5.58
8.16
9.90
10.91
11.30
11.18
10.69
10.08
9.59
9.44
9.73
10.40
11.29
12.20
12.96
13.55
13.99
14.36
14.73
15.08
15.32
15.28
14.81
13.85
12.43
10.73
8.99
7.40
6.06
4.96
3.94
2.85
1.56
0.07
-1.57
-3.22
-4.74
-6.07
-7.18
-8.12
-9.00
-9.93
-11.02
-12.41
-14.19
-16.41
-18.91
-21.29
-22.95
-23.23
-21.71
-18.38
-13.68
-8.35
-3.18
1.29
4.87
7.62
9.65
11.07
11.85
11.96
11.47
10.62
9.72
9.06
8.80
8.89
9.23
9.67
10.14
10.63
11.12
11.58
11.95
12.16
12.16
11.96
11.54
10.91
10.06
9.02
7.89
6.78
5.76
4.83
3.91
2.89
1.74
0.52
-0.63
-1.64
-2.51
-3.41
-4.49
-5.88
-7.52
-9.23
-10.78
-11.99
-12.83
-13.43
-14.03
-14.92
-16.32
-18.30
-20.73
-23.24
-25.29
-26.28
-25.71
-23.38
-19.42
-14.33
-8.82
-3.61
0.79
4.17
6.63
8.40
9.68
10.56
10.99
10.93
10.45
9.68
8.87
8.22
7.86
7.81
8.04
8.51
9.15
9.91
10.70
11.40
11.95
12.27
12.36
12.19
11.72
10.96
9.97
8.85
7.75
6.74
5.82
4.93
3.98
2.94
1.83
0.71
-0.33
-1.20
-1.85
-2.28
-2.58
-2.96
-3.71
-5.10
-7.33
-10.36
-13.88
-17.38
-20.25
-21.93
-22.04
-20.52
-17.57
-13.63
-9.25
-4.93
-1.02
2.29
4.95
6.95
8.27
8.90
8.86
8.29
7.41
6.47
5.70
5.17
4.87
4.73
4.75
4.95
5.39
6.05
6.80
7.46
7.83
7.76
7.24
6.34
5.17
3.85
2.45
1.00
-0.50
-2.10
-3.84
-5.69
-7.57
-9.31
-10.80
-11.96
-12.91
-13.85
-15.02
-16.58
-18.52
-20.66
-22.67
-24.10
-24.52
-23.59
-21.19
-17.42
-12.70
-7.58
-2.67
1.54
4.81
7.09
8.51
9.22
9.41
9.22
8.78
8.19
7.58
7.09
6.82
6.84
7.16
7.69
8.33
8.95
9.48
9.89
10.18
10.34
10.33
10.07
9.51
8.61
7.44
6.12
4.77
3.52
2.41
1.43
0.52
-0.44
-1.57
-2.91
-4.41
-5.94
-7.31
-8.36
-9.06
-9.56
-10.11
-10.97
-12.38
-14.41
-16.93
-19.63
-22.03
-23.62
-23.96
-22.80
-20.15
-16.29
-11.69
-6.90
-2.45
1.33
4.27
6.41
7.88
8.88
9.54
9.96
10.17
10.19
10.07
9.85
9.65
9.53
9.54
9.72
10.04
10.45
10.85
11.12
11.17
10.95
10.46
9.75
8.87
7.86
6.75
5.55
4.30
3.07
1.85
0.61
-0.74
-2.25
-3.89
-5.51
-6.93
-8.03
-8.84
-9.53
-10.35
-11.49
-12.98
-14.77
-16.65
-18.36
-19.55
-19.85
-18.91
-16.55
-12.84
-8.21
-3.27
1.34
5.16
8.04
10.06
11.44
12.31
12.69
12.54
11.86
10.76
9.51
8.42
7.69
7.37
7.32
7.36
7.34
7.23
7.11
7.03
6.99
6.85
6.44
5.66
4.50
3.09
1.61
0.22
-1.01
-2.12
-3.16
-4.22
-5.38
-6.69
-8.23
-9.98
-11.85
-13.61
-14.92
-15.40
-14.83
-13.14
-10.50
-7.22
-3.65
-0.13
3.11
5.86
8.00
9.44
10.18
10.30
9.92
9.21
8.30
7.31
6.35
5.51
4.88
4.56
4.54
4.81
5.28
5.81
6.29
6.56
6.55
6.20
5.55
4.65
3.56
2.34
1.03
-0.36
-1.79
-3.24
-4.72
-6.27
-7.96
-9.77
-11.55
-12.97
-13.59
-13.08
-11.32
-8.51
-5.04
-1.42
1.95
4.81
7.05
8.64
9.59
9.88
9.56
8.74
7.61
6.37
5.19
4.17
3.33
2.68
2.20
1.92
1.88
2.05
2.38
2.72
2.90
2.76
2.21
1.25
-0.05
-1.57
-3.20
-4.83
-6.42
-7.95
-9.41
-10.84
-12.28
-13.82
-15.54
-17.53
-19.77
-22.08
-24.11
-25.39
-25.44
-23.96
-20.90
-16.57
-11.54
-6.44
-1.83
1.97
4.92
7.19
9.02
10.55
11.80
12.67
13.08
13.04
12.74
12.41
12.29
12.51
13.02
13.71
14.49
15.32
16.18
17.04
17.82
18.34
18.50
18.23
17.60
16.71
15.72
14.70
13.71
12.71
11.64
10.45
9.09
7.60
6.02
4.41
2.81
1.23
-0.33
-1.86
-3.28
-4.54
-5.59
-6.47
-7.33
-8.32
-9.58
-11.15
-12.95
-14.89
-16.82
-18.68
-20.41
-22.00
-23.43
-24.74
-26.01
-27.38
-28.98
-30.75
-32.43
-33.52
-33.42
-31.66
-28.14
-23.15
-17.32
-11.34
-5.80
-0.99
3.04
6.37
9.01
10.96
12.13
12.56
12.41
12.01
11.71
11.77
12.26
13.09
14.01
14.85
15.50
15.97
16.37
16.78
17.20
17.57
17.76
17.69
17.33
16.73
15.97
15.12
14.21
13.22
12.11
10.87
9.55
8.22
6.90
5.62
4.35
3.12
1.98
1.00
0.24
-0.35
-0.94
-1.76
-2.98
-4.67
-6.68
-8.78
-10.71
-12.28
-13.53
-14.60
-15.75
-17.19
-19.08
-21.44
-24.16
-26.97
-29.43
-31.04
-31.24
-29.68
-26.27
-21.31
-15.43
-9.42
-3.97
0.51
3.95
6.53
8.54
10.20
11.58
12.62
13.29
13.59
13.66
13.67
13.77
14.02
14.36
14.73
15.07
15.41
15.78
16.21
16.64
16.97
17.06
16.81
16.21
15.34
14.31
13.22
12.14
11.06
9.93
8.72
7.42
6.05
4.70
3.41
2.25
1.23
0.32
-0.53
-1.36
-2.21
-3.13
-4.17
-5.38
-6.76
-8.30
-9.91
-11.51
-13.05
-14.56
-16.13
-17.87
-19.82
-21.87
-23.70
-24.84
-24.81
-23.26
-20.13
-15.68
-10.41
-4.91
0.31
4.88
8.63
11.52
13.55
14.76
15.21
15.01
14.37
13.53
12.68
11.97
11.46
11.16
11.06
11.16
11.44
11.83
12.23
12.50
12.58
12.47
12.22
11.92
11.58
11.15
10.49
9.46
8.02
6.25
4.34
2.51
0.92
-0.39
-1.46
-2.41
-3.35
-4.35
-5.45
-6.63
-7.90
-9.25
-10.66
-12.10
-13.49
-14.79
-16.01
-17.28
-18.79
-20.65
-22.81
-24.92
-26.40
-26.60
-25.04
-21.60
-16.60
-10.66
-4.55
1.07
5.75
9.28
11.65
12.97
13.44
13.28
12.73
12.00
11.27
10.65
10.24
10.07
10.12
10.38
10.78
11.27
11.78
12.28
12.74
13.12
13.36
13.38
13.13
12.60
11.86
10.98
10.03
9.04
7.95
6.71
5.26
3.66
2.01
0.48
-0.78
-1.69
-2.27
-2.70
-3.19
-3.93
-5.02
-6.41
-7.93
-9.39
-10.62
-11.60
-12.40
-13.23
-14.34
-15.91
-18.03
-20.55
-23.05
-24.94
-25.57
-24.47
-21.52
-17.00
-11.48
-5.64
-0.07
4.78
8.64
11.40
13.05
13.67
13.46
12.67
11.59
10.46
9.46
8.69
8.18
7.99
8.10
8.46
8.98
9.53
10.06
10.52
10.92
11.25
11.45
11.37
10.89
9.94
8.57
6.92
5.19
3.56
2.13
0.90
-0.22
-1.30
-2.45
-3.67
-4.97
-6.33
-7.72
-9.08
-10.36
-11.50
-12.50
-13.41
-14.38
-15.62
-17.25
-19.24
-21.32
-22.96
-23.60
-22.77
-20.30
-16.33
-11.33
-5.88
-0.56
4.17
8.02
10.89
12.75
13.68
13.80
13.25
12.22
10.93
9.62
8.50
7.76
7.49
7.67
8.21
8.96
9.79
10.59
11.30
11.88
12.27
12.40
12.22
11.70
10.90
9.92
8.88
7.88
6.98
6.17
5.38
4.53
3.54
2.36
1.04
-0.33
-1.58
-2.58
-3.29
-3.76
-4.18
-4.72
-5.52
-6.61
-7.94
-9.43
-10.98
-12.50
-13.93
-15.21
-16.37
-17.50
-18.80
-20.47
-22.56
-24.85
-26.81
-27.78
-27.15
-24.64
-20.39
-14.93
-8.97
-3.18
1.94
6.12
9.30
11.51
12.83
13.31
13.03
12.12
10.78
9.30
7.99
7.11
6.78
7.01
7.64
8.47
9.31
10.01
10.53
10.86
11.03
11.09
11.04
10.89
10.58
10.03
9.18
8.00
6.56
4.97
3.40
1.97
0.73
-0.34
-1.27
-2.15
-3.02
-3.90
-4.83
-5.82
-6.87
-7.94
-8.97
-9.89
-10.71
-11.50
-12.40
-13.61
-15.28
-17.45
-19.97
-22.52
-24.58
-25.59
-25.03
-22.62
-18.43
-12.90
-6.76
-0.84
4.18
7.91
10.35
11.72
12.34
12.44
12.13
11.44
10.45
9.33
8.36
7.81
7.81
8.33
9.19
10.13
11.00
11.74
12.37
12.92
13.35
13.55
13.40
12.87
12.02
10.99
9.94
8.97
8.03
7.01
5.77
4.25
2.51
0.73
-0.90
-2.24
-3.25
-4.03
-4.72
-5.50
-6.44
-7.56
-8.80
-10.06
-11.27
-12.36
-13.34
-14.24
-15.12
-16.11
-17.36
-18.96
-20.88
-22.82
-24.24
-24.49
-23.02
-19.55
-14.25
-7.65
-0.55
6.24
12.00
16.33
19.09
20.45
20.75
20.39
19.73
18.96
18.20
17.45
16.76
16.19
15.84
15.77
15.97
16.40
17.00
17.69
18.43
19.14
19.75
20.15
20.25
20.01
19.41
18.52
17.46
16.38
15.44
14.78
14.48
14.49
14.72
15.05
15.38
15.68
16.04
16.53
17.22
18.11
19.13
20.18
21.21
22.20
23.22
24.32
25.46
26.47
27.04
26.83
25.67
23.59
20.90
18.05
15.38
13.03
10.86
8.56
5.87
2.69
-0.86
-4.58
-8.22
-11.64
-14.73
-17.40
-19.51
-20.87
-21.38
-21.02
-19.91
-18.28
-16.33
-14.27
-12.22
-10.25
-8.42
-6.73
-5.20
-3.82
-2.53
-1.31
-0.12
1.10
2.33
3.54
4.65
5.54
6.13
6.39
6.42
6.39
6.52
6.99
7.88
9.14
10.66
12.31
13.96
15.53
16.99
18.33
19.58
20.80
22.08
23.36
24.42
24.76
23.68
20.44
14.58
6.09
-4.43
-15.99
-27.42
-37.77
-46.46
-53.32
-58.43
-61.97
-64.05
-64.75
-64.17
-62.52
-60.17
-57.54
-54.97
-52.59
-50.30
-47.84
-45.01
-41.75
-38.19
-34.56
-31.04
-27.71
-24.54
-21.51
-18.65
-16.10
-14.01
-12.43
-11.27
-10.37
-9.61
-8.94
-8.43
-8.17
-8.16
-8.32
-8.53
-8.65
-8.69
-8.72
-8.87
-9.25
-9.89
-10.70
-11.52
-12.17
-12.59
-12.77
-12.87
-13.07
-13.53
-14.33
-15.46
-16.75
-17.97
-18.84
-19.01
-18.15
-16.00
-12.49
-7.85
-2.53
2.83
7.61
11.38
13.97
15.49
16.17
16.25
15.92
15.30
14.51
13.70
13.04
12.71
12.78
13.20
13.77
14.27
14.55
14.58
14.44
14.31
14.31
14.42
14.52
14.41
13.94
13.06
11.87
10.54
9.27
8.15
7.19
6.30
5.33
4.19
2.88
1.50
0.20
-0.88
-1.68
-2.27
-2.78
-3.40
-4.26
-5.40
-6.73
-8.11
-9.42
-10.64
-11.85
-13.18
-14.79
-16.75
-19.05
-21.50
-23.78
-25.44
-25.97
-24.87
-21.88
-17.08
-10.93
-4.21
2.17
7.47
11.22
13.39
14.20
13.98
13.03
11.53
9.60
7.43
5.27
3.44
2.19
1.61
1.58
1.90
2.42
3.07
3.92
5.00
6.30
7.66
8.88
9.75
10.19
10.16
9.73
8.94
7.91
6.75
5.66
4.77
4.16
3.72
3.26
2.57
1.62
0.53
-0.41
-0.98
-1.12
-0.98
-0.86
-1.04
-1.66
-2.69
-3.89
-4.98
-5.58
-5.26
-3.60
-0.25
4.91
11.64
19.33
27.15
34.31
40.27
44.91
48.43
51.21
53.55
55.57
57.16
58.08
58.17
57.40
55.92
53.95
51.62
48.88
45.51
41.18
35.61
28.71
20.62
11.67
2.26
-7.20
-16.33
-24.75
-32.02
-37.73
-41.53
-43.24
-42.96
-41.03
-37.96
-34.27
-30.37
-26.48
-22.69
-19.00
-15.43
-12.06
-9.00
-6.46
-4.67
-3.91
-4.42
-6.42
-9.98
-14.96
-21.01
-27.59
-34.03
-39.65
-43.90
-46.44
-47.23
-46.44
-44.34
-41.12
-36.82
-31.30
-24.43
-16.30
-7.37
1.53
9.40
15.43
19.18
20.72
20.48
19.04
16.91
14.43
11.82
9.29
7.05
5.36
4.39
4.18
4.57
5.25
5.93
6.37
6.54
6.51
6.46
6.52
6.70
6.90
6.91
6.56
5.76
4.61
3.31
2.12
1.23
0.65
0.28
-0.12
-0.70
-1.53
-2.50
-3.46
-4.25
-4.85
-5.31
-5.75
-6.25
-6.84
-7.50
-8.18
-8.86
-9.58
-10.36
-11.23
-12.19
-13.25
-14.44
-15.84
-17.46
-19.15
-20.61
-21.33
-20.82
-18.78
-15.21
-10.46
-5.13
0.10
4.65
8.14
10.41
11.48
11.49
10.65
9.25
7.59
5.99
4.67
3.76
3.28
3.13
3.21
3.40
3.62
3.82
3.96
4.02
4.00
3.92
3.78
3.59
3.29
2.80
2.03
0.90
-0.57
-2.27
-4.04
-5.69
-7.07
-8.16
-9.05
-9.91
-10.90
-12.14
-13.60
-15.17
-16.60
-17.56
-17.73
-16.87
-14.88
-11.88
-8.25
-4.49
-1.15
1.40
3.02
3.86
4.20
4.31
4.37
4.39
4.29
4.00
3.50
2.83
2.11
1.49
1.19
1.48
2.68
5.01
8.55
13.02
17.90
22.44
25.94
27.91
28.19
26.89
24.34
20.86
16.74
12.16
7.28
2.25
-2.73
-7.47
-11.78
-15.57
-18.89
-21.89
-24.76
-27.66
-30.69
-33.80
-36.91
-39.85
-42.41
-44.41
-45.66
-46.05
-45.51
-44.03
-41.57
-38.09
-33.49
-27.79
-21.14
-13.87
-6.45
0.64
7.04
12.55
17.09
20.63
23.11
24.48
24.80
24.21
22.99
21.41
19.73
18.12
16.65
15.34
14.13
12.88
11.40
9.46
6.96
4.01
1.02
-1.35
-2.46
-1.87
0.47
4.13
8.39
12.50
15.85
18.20
19.62
20.34
20.52
20.28
19.57
18.39
16.84
15.14
13.59
12.44
11.79
11.62
11.78
12.14
12.58
13.05
13.50
13.93
14.32
14.68
15.01
15.35
15.71
16.09
16.43
16.61
16.54
16.18
15.57
14.85
14.17
13.66
13.37
13.27
13.30
13.39
13.50
13.59
13.59
13.46
13.17
12.75
12.25
11.69
10.98
9.96
8.40
6.10
3.01
-0.82
-5.22
-9.94
-14.66
-19.05
-22.73
-25.38
-26.82
-27.05
-26.24
-24.67
-22.65
-20.31
-17.67
-14.55
-10.73
-6.05
-0.57
5.38
11.26
16.48
20.48
22.89
23.58
22.61
20.15
16.47
11.90
6.92
2.13
-1.86
-4.54
-5.68
-5.40
-4.14
-2.48
-1.00
-0.07
0.19
-0.10
-0.70
-1.36
-1.88
-2.20
-2.35
-2.36
-2.30
-2.28
-2.40
-2.82
-3.67
-4.99
-6.65
-8.41
-9.92
-10.93
-11.36
-11.37
-11.23
-11.27
-11.70
-12.54
-13.67
-14.86
-15.86
-16.56
-16.95
-17.23
-17.64
-18.42
-19.63
-21.10
-22.45
-23.18
-22.84
-21.21
-18.37
-14.64
-10.55
-6.61
-3.27
-0.81
0.61
0.99
0.42
-0.92
-2.82
-5.06
-7.43
-9.77
-11.85
-13.48
-14.38
-14.33
-13.18
-10.98
-7.97
-4.47
-0.86
2.55
5.56
8.07
10.09
11.67
12.89
13.85
14.61
15.16
15.47
15.50
15.30
14.96
14.65
14.45
14.36
14.30
14.14
13.80
13.27
12.64
11.95
11.21
10.36
9.33
8.14
6.90
5.80
5.04
4.66
4.60
4.68
4.70
4.51
4.06
3.37
2.49
1.46
0.34
-0.88
-2.13
-3.32
-4.31
-4.92
-5.00
-4.48
-3.44
-2.06
-0.59
0.75
1.82
2.56
3.01
3.22
3.22
2.99
2.52
1.80
0.89
-0.08
-0.91
-1.47
-1.66
-1.48
-0.98
-0.27
0.57
1.47
2.40
3.35
4.26
5.10
5.82
6.42
6.92
7.36
7.77
8.18
8.57
8.95
9.33
9.70
10.10
10.52
11.01
11.57
12.20
12.82
13.36
13.74
13.96
14.09
14.28
14.64
15.18
15.82
16.35
16.54
16.20
15.22
13.62
11.50
9.00
6.29
3.51
0.73
-1.97
-4.48
-6.72
-8.59
-10.07
-11.25
-12.32
-13.45
-14.75
-16.13
-17.41
-18.39
-19.01
-19.40
-19.84
-20.54
-21.60
-22.94
-24.36
-25.66
-26.74
-27.60
-28.33
-29.05
-29.89
-31.00
-32.51
-34.47
-36.75
-38.98
-40.51
-40.60
-38.61
-34.26
-27.73
-19.64
-10.83
-2.13
5.82
12.68
18.39
23.03
26.72
29.54
31.44
32.38
32.36
31.51
30.10
28.46
26.88
25.53
24.45
23.55
22.65
21.58
20.16
18.31
16.09
13.74
11.70
10.53
10.77
12.77
16.54
21.74
27.66
33.33
37.73
40.02
39.75
36.93
32.03
25.73
18.67
11.26
3.63
-4.20
-12.17
-20.03
-27.30
-33.43
-37.92
-40.51
-41.11
-39.84
-36.96
-32.76
-27.63
-22.02
-16.43
-11.34
-7.16
-4.15
-2.32
-1.48
-1.34
-1.53
-1.80
-1.99
-2.07
-2.08
-2.10
-2.18
-2.37
-2.67
-3.05
-3.40
-3.60
-3.56
-3.27
-2.90
-2.66
-2.76
-3.30
-4.24
-5.38
-6.50
-7.48
-8.31
-9.11
-10.05
-11.25
-12.75
-14.52
-16.45
-18.32
-19.84
-20.62
-20.28
-18.56
-15.47
-11.33
-6.68
-2.15
1.74
4.70
6.70
7.92
8.60
8.98
9.15
9.17
9.00
8.67
8.28
7.97
7.89
8.12
8.61
9.21
9.76
10.18
10.51
10.86
11.30
11.80
12.23
12.43
12.29
11.84
11.18
10.43
9.66
8.89
8.12
7.34
6.59
5.85
5.10
4.30
3.46
2.63
1.93
1.45
1.13
0.83
0.31
-0.59
-1.85
-3.28
-4.55
-5.43
-5.87
-6.07
-6.42
-7.23
-8.69
-10.70
-12.96
-15.06
-16.57
-17.09
-16.36
-14.27
-10.93
-6.74
-2.23
2.04
5.65
8.43
10.44
11.84
12.75
13.19
13.14
12.63
11.79
10.85
10.08
9.66
9.66
10.06
10.75
11.60
12.47
13.21
13.67
13.77
13.46
12.77
11.74
10.42
8.87
7.15
5.36
3.61
2.01
0.68
-0.35
-1.11
-1.75
-2.40
-3.23
-4.25
-5.41
-6.54
-7.50
-8.23
-8.82
-9.45
-10.30
-11.44
-12.77
-14.07
-15.15
-15.94
-16.51
-17.08
-17.87
-19.05
-20.71
-22.77
-25.06
-27.26
-28.93
-29.59
-28.79
-26.29
-22.18
-16.86
-10.97
-5.21
-0.14
3.95
6.99
9.09
10.39
11.04
11.15
10.88
10.42
9.97
9.71
9.71
9.98
10.44
11.05
11.78
12.62
13.52
14.38
15.05
15.39
15.34
14.94
14.30
13.54
12.71
11.80
10.74
9.47
8.02
6.48
5.00
3.67
2.53
1.50
0.48
-0.60
-1.73
-2.89
-4.02
-5.14
-6.31
-7.59
-8.96
-10.31
-11.51
-12.46
-13.23
-14.03
-15.13
-16.75
-18.93
-21.49
-24.02
-26.03
-26.97
-26.43
-24.16
-20.18
-14.76
-8.41
-1.75
4.58
10.12
14.57
17.87
20.11
21.48
22.20
22.51
22.58
22.55
22.51
22.50
22.56
22.73
23.05
23.53
24.15
24.84
25.46
25.90
26.06
25.96
25.65
25.22
24.74
24.19
23.46
22.43
21.02
19.22
17.14
14.88
12.48
9.91
7.09
4.00
0.69
-2.72
-6.13
-9.53
-13.05
-16.84
-21.05
-25.70
-30.67
-35.71
-40.57
-44.98
-48.55
-50.89
-51.67
-50.76
-48.32
-44.79
-40.82
-37.15
-34.38
-32.57
-31.31
-29.96
-27.83
-24.46
-19.74
-14.04
-8.25
-3.53
-0.53
0.59
0.15
-1.28
-3.10
-4.98
-6.99
-9.68
-13.66
-18.70
-23.94
-28.32
-30.92
-31.00
-27.70
-19.25
-4.88
14.21
35.31
54.65
68.33
73.41
68.91
56.57
39.91
24.07
10.60
0.15
-7.06
-11.29
-12.95
-12.30
-9.02
-3.10
4.74
12.49
18.82
23.65
27.64
31.92
37.72
46.49
58.46
72.28
85.33
94.94
99.69
99.25
94.31
82.72
65.37
45.76
28.22
17.26
11.65
9.47
9.24
9.52
9.61
9.68
9.74
9.47
8.33
5.88
2.67
-0.59
-3.32
-5.16
-5.65
-4.78
-3.11
-1.45
-0.65
-0.75
-1.50
-2.56
-3.60
-4.19
-4.26
-4.09
-4.21
-5.17
-7.01
-9.49
-12.33
-15.26
-18.00
-20.50
-22.89
-25.38
-28.11
-30.89
-33.39
-35.37
-36.74
-37.59
-38.22
-38.97
-40.10
-41.66
-43.43
-45.09
-46.29
-46.78
-46.45
-45.27
-43.40
-41.05
-38.49
-35.92
-33.32
-30.43
-26.85
-22.19
-16.38
-9.69
-2.74
3.73
9.10
13.05
15.57
16.86
17.24
16.99
16.36
15.52
14.60
13.73
13.02
12.52
12.25
12.14
12.07
11.95
11.71
11.41
11.15
11.03
11.02
11.01
10.81
10.31
9.50
8.49
7.42
6.36
5.35
4.36
3.38
2.44
1.56
0.73
-0.16
-1.16
-2.33
-3.61
-4.87
-5.96
-6.81
-7.42
-7.87
-8.26
-8.73
-9.35
-10.17
-11.19
-12.39
-13.76
-15.25
-16.73
-17.98
-18.62
-18.27
-16.66
-13.78
-9.95
-5.70
-1.61
1.91
4.66
6.69
8.08
8.94
9.27
9.10
8.45
7.43
6.24
5.11
4.27
3.84
3.86
4.23
4.79
5.38
5.90
6.31
6.62
6.86
7.04
7.09
6.98
6.66
6.14
5.43
4.59
3.64
2.61
1.53
0.39
-0.77
-1.88
-2.83
-3.57
-4.08
-4.49
-4.98
-5.69
-6.70
-7.93
-9.28
-10.62
-11.91
-13.13
-14.19
-14.90
-14.92
-13.97
-11.88
-8.76
-4.97
-0.97
2.81
6.08
8.72
10.69
11.98
12.56
12.39
11.52
10.14
8.56
7.12
6.09
5.57
5.47
5.60
5.75
5.81
5.80
5.79
5.84
5.98
6.17
6.30
6.28
6.03
5.50
4.65
3.54
2.29
1.08
0.05
-0.68
-1.16
-1.55
-2.07
-2.94
-4.23
-5.84
-7.55
-9.03
-10.03
-10.42
-10.33
-10.04
-9.94
-10.34
-11.39
-13.01
-14.95
-16.85
-18.32
-18.94
-18.36
-16.35
-12.88
-8.30
-3.22
1.63
5.59
8.33
9.90
10.57
10.72
10.60
10.32
9.90
9.32
8.64
7.96
7.39
6.97
6.66
6.45
6.31
6.23
6.24
6.28
6.30
6.23
5.99
5.57
4.98
4.21
3.28
2.21
1.06
-0.03
-0.94
-1.60
-2.05
-2.49
-3.13
-4.14
-5.51
-7.06
-8.51
-9.62
-10.30
-10.62
-10.80
-11.09
-11.68
-12.66
-13.97
-15.41
-16.66
-17.36
-17.15
-15.79
-13.21
-9.59
-5.26
-0.69
3.67
7.43
10.32
12.24
13.19
13.31
12.77
11.80
10.58
9.24
7.91
6.70
5.79
5.36
5.51
6.22
7.28
8.38
9.20
9.56
9.45
9.02
8.43
7.79
7.13
6.41
5.57
4.61
3.51
2.31
1.01
-0.35
-1.74
-3.12
-4.44
-5.69
-6.88
-8.02
-9.11
-10.15
-11.12
-12.04
-12.94
-13.91
-15.03
-16.37
-17.98
-19.88
-22.02
-24.26
-26.28
-27.58
-27.57
-25.75
-21.88
-16.16
-9.21
-1.90
4.88
10.50
14.64
17.35
18.83
19.35
19.11
18.27
16.94
15.31
13.63
12.18
11.20
10.81
10.99
11.50
12.10
12.54
12.71
12.63
12.32
11.80
11.01
9.85
8.27
6.36
4.35
2.46
0.83
-0.59
-2.01
-3.63
-5.56
-7.72
-9.92
-11.94
-13.63
-14.98
-16.05
-16.99
-17.95
-19.09
-20.47
-22.01
-23.42
-24.18
-23.69
-21.48
-17.40
-11.74
-5.15
1.56
7.59
12.43
15.82
17.77
18.42
18.02
16.86
15.24
13.49
11.89
10.65
9.88
9.55
9.52
9.58
9.61
9.55
9.47
9.48
9.60
9.78
9.83
9.55
8.79
7.58
6.03
4.38
2.78
1.36
0.11
-1.00
-2.04
-3.07
-4.13
-5.31
-6.61
-8.01
-9.35
-10.50
-11.34
-11.90
-12.40
-13.13
-14.36
-16.20
-18.53
-21.03
-23.22
-24.55
-24.50
-22.64
-18.81
-13.22
-6.49
0.48
6.80
11.78
15.21
17.24
18.22
18.48
18.18
17.38
16.11
14.54
12.96
11.69
10.96
10.84
11.22
11.92
12.76
13.64
14.51
15.31
15.97
16.39
16.42
16.01
15.20
14.14
13.05
12.10
11.37
10.85
10.43
10.02
9.56
9.03
8.46
7.89
7.35
6.92
6.70
6.83
7.40
8.39
9.67
10.98
12.05
12.68
12.78
12.42
11.78
11.11
10.62
10.46
10.67
11.18
11.84
12.44
12.78
12.69
12.10
11.02
9.60
8.03
6.54
5.29
4.32
3.58
2.92
2.19
1.29
0.21
-0.97
-2.18
-3.43
-4.81
-6.45
-8.43
-10.71
-13.18
-15.66
-18.04
-20.26
-22.32
-24.25
-26.02
-27.55
-28.77
-29.56
-29.81
-29.40
-28.26
-26.41
-24.05
-21.53
-19.19
-17.29
-15.86
-14.74
-13.69
-12.56
-11.36
-10.29
-9.59
-9.48
-10.03
-11.14
-12.58
-13.97
-14.88
-14.83
-13.48
-10.72
-6.74
-2.04
2.76
7.03
10.40
12.70
14.00
14.46
14.26
13.55
12.50
11.30
10.18
9.31
8.75
8.45
8.29
8.15
7.99
7.86
7.83
7.92
8.04
8.05
7.77
7.10
6.05
4.68
3.09
1.38
-0.38
-2.13
-3.83
-5.43
-6.89
-8.15
-9.22
-10.09
-10.85
-11.62
-12.53
-13.68
-15.09
-16.67
-18.25
-19.67
-20.76
-21.34
-21.24
-20.18
-17.98
-14.58
-10.14
-5.07
0.11
4.91
8.96
12.05
14.11
15.13
15.19
14.50
13.35
12.13
11.16
10.61
10.49
10.67
10.98
11.26
11.46
11.61
11.76
11.94
12.15
12.33
12.39
12.23
11.81
11.10
10.09
8.84
7.40
5.83
4.24
2.72
1.34
0.13
-0.96
-2.04
-3.14
-4.27
-5.33
-6.25
-7.02
-7.75
-8.60
-9.67
-10.94
-12.25
-13.43
-14.37
-15.10
-15.80
-16.68
-17.92
-19.62
-21.74
-24.10
-26.36
-28.07
-28.67
-27.75
-25.07
-20.76
-15.23
-9.09
-2.97
2.61
7.24
10.70
12.92
13.98
14.09
13.54
12.64
11.64
10.67
9.77
8.95
8.24
7.71
7.44
7.46
7.71
8.08
8.40
8.50
8.26
7.61
6.53
5.07
3.31
1.42
-0.48
-2.26
-3.87
-5.35
-6.77
-8.17
-9.50
-10.61
-11.29
-11.38
-10.84
-9.76
-8.38
-7.00
-5.91
-5.30
-5.27
-5.78
-6.60
-7.39
-7.73
-7.25
-5.75
-3.23
0.10
3.85
7.58
10.86
13.42
15.13
16.04
16.31
16.13
15.65
14.92
13.97
12.85
11.69
10.72
10.13
10.03
10.38
11.00
11.66
12.21
12.58
12.80
12.93
12.96
12.85
12.50
11.82
10.82
9.62
8.37
7.20
6.16
5.23
4.31
3.33
2.29
1.25
0.27
-0.63
-1.51
-2.46
-3.54
-4.75
-5.98
-7.10
-8.01
-8.71
-9.32
-10.03
-11.06
-12.57
-14.57
-16.83
-18.93
-20.28
-20.30
-18.67
-15.41
-10.88
-5.68
-0.47
4.26
8.22
11.31
13.58
15.10
15.95
16.18
15.89
15.21
14.30
13.39
12.71
12.46
12.78
13.70
15.10
16.77
18.46
19.94
21.11
21.97
22.62
23.19
23.73
24.20
24.48
24.40
23.83
22.74
21.18
19.21
16.83
13.99
10.67
6.93
2.98
-0.84
-4.15
-6.71
-8.43
-9.43
-9.94
-10.24
-10.61
-11.31
-12.54
-14.33
-16.49
-18.55
-19.85
-19.75
-17.90
-14.37
-9.69
-4.66
-0.08
3.45
5.63
6.50
6.24
5.11
3.33
1.10
-1.32
-3.64
-5.54
-6.77
-7.24
-7.01
-6.24
-5.12
-3.74
-2.10
-0.17
2.04
4.41
6.71
8.63
9.85
10.11
9.18
6.97
3.48
-1.09
-6.34
-11.73
-16.69
-20.69
-23.42
-24.84
-25.14
-24.69
-23.90
-23.08
-22.38
-21.69
-20.69
-18.97
-16.21
-12.30
-7.43
-2.02
3.40
8.35
12.55
15.89
18.43
20.25
21.48
22.20
22.52
22.55
22.39
22.17
21.95
21.76
21.56
21.27
20.78
20.03
19.00
17.70
16.15
14.33
12.21
9.75
6.99
4.05
1.13
-1.58
-3.97
-6.07
-8.04
-10.11
-12.46
-15.16
-18.15
-21.24
-24.22
-26.89
-29.12
-30.84
-31.99
-32.50
-32.25
-31.05
-28.76
-25.26
-20.58
-14.88
-8.51
-1.92
4.41
10.04
14.67
18.16
20.56
22.04
22.87
23.37
23.80
24.35
25.13
26.13
27.26
28.34
29.13
29.36
28.82
27.41
25.20
22.32
18.90
14.96
10.35
4.85
-1.77
-9.53
-18.22
-27.32
-36.12
-43.82
-49.69
-53.25
-54.30
-52.97
-49.61
-44.69
-38.66
-31.94
-24.91
-17.91
-11.26
-5.22
0.06
4.53
8.20
11.11
13.24
14.60
15.17
14.99
14.08
12.47
10.12
6.97
3.03
-1.62
-6.73
-11.98
-17.04
-21.67
-25.71
-29.08
-31.70
-33.47
-34.25
-33.87
-32.30
-29.59
-25.95
-21.69
-17.12
-12.50
-7.99
-3.68
0.38
4.10
7.34
9.92
11.76
12.91
13.57
14.06
14.63
15.38
16.19
16.83
17.06
16.77
15.99
14.89
13.65
12.42
11.28
10.23
9.33
8.55
7.88
7.26
6.63
5.93
5.16
4.35
3.57
2.84
2.15
1.47
0.87
0.51
0.64
1.56
3.38
6.01
9.08
12.10
14.57
16.13
16.68
16.26
15.02
13.09
10.59
7.66
4.54
1.55
-0.94
-2.63
-3.41
-3.39
-2.82
-2.06
-1.40
-1.00
-0.88
-0.96
-1.12
-1.28
-1.41
-1.56
-1.82
-2.30
-3.09
-4.21
-5.60
-7.18
-8.79
-10.36
-11.83
-13.24
-14.65
-16.09
-17.54
-18.92
-20.13
-21.07
-21.66
-21.83
-21.56
-20.82
-19.64
-18.09
-16.32
-14.51
-12.83
-11.42
-10.34
-9.61
-9.20
-9.11
-9.35
-9.91
-10.71
-11.47
-11.74
-10.96
-8.73
-4.99
-0.13
5.06
9.77
13.38
15.67
16.83
17.19
17.07
16.62
15.82
14.69
13.33
12.01
10.95
10.31
10.02
9.90
9.73
9.38
8.91
8.48
8.24
8.23
8.35
8.35
8.02
7.28
6.15
4.79
3.38
2.01
0.73
-0.49
-1.68
-2.86
-4.03
-5.15
-6.19
-7.10
-7.86
-8.47
-8.98
-9.45
-9.92
-10.38
-10.76
-10.96
-10.89
-10.55
-10.00
-9.34
-8.69
-8.14
-7.76
-7.63
-7.79
-8.26
-8.96
-9.66
-10.02
-9.63
-8.16
-5.51
-1.85
2.36
6.52
10.13
12.92
14.90
16.26
17.16
17.61
17.53
16.84
15.62
14.18
12.91
12.13
11.93
12.18
12.63
13.09
13.47
13.85
14.30
14.85
15.40
15.82
15.99
15.82
15.35
14.71
14.08
13.60
13.36
13.32
13.36
13.35
13.20
12.92
12.57
12.19
11.75
11.12
10.10
8.54
6.41
3.78
0.79
-2.41
-5.72
-9.11
-12.58
-16.09
-19.60
-22.99
-26.14
-28.85
-30.92
-32.07
-31.96
-30.32
-26.98
-22.08
-16.05
-9.57
-3.39
1.91
6.00
8.89
10.77
11.86
12.30
12.17
11.54
10.55
9.42
8.39
7.70
7.42
7.54
7.91
8.35
8.69
8.82
8.69
8.30
7.74
7.06
6.35
5.64
4.95
4.28
3.59
2.87
2.14
1.43
0.80
0.34
0.09
0.03
0.10
0.21
0.29
0.31
0.27
0.19
0.05
-0.23
-0.72
-1.42
-2.22
-2.93
-3.34
-3.38
-3.12
-2.78
-2.61
-2.83
-3.52
-4.67
-6.12
-7.65
-8.94
-9.55
-9.04
-7.10
-3.70
0.79
5.72
10.27
13.78
15.88
16.57
16.07
14.70
12.73
10.34
7.63
4.74
1.83
-0.87
-3.15
-4.85
-5.91
-6.35
-6.28
-5.82
-5.16
-4.44
-3.87
-3.56
-3.56
-3.83
-4.27
-4.80
-5.38
-6.05
-6.82
-7.72
-8.67
-9.59
-10.39
-11.01
-11.44
-11.66
-11.69
-11.52
-11.23
-10.92
-10.70
-10.69
-10.93
-11.37
-11.95
-12.64
-13.43
-14.41
-15.62
-17.04
-18.56
-19.89
-20.56
-20.11
-18.10
-14.33
-8.89
-2.20
5.13
12.39
18.91
24.24
28.10
30.44
31.42
31.34
30.60
29.54
28.39
27.20
25.83
24.02
21.52
18.17
13.96
9.12
3.98
-1.05
-5.66
-9.72
-13.32
-16.70
-20.13
-23.82
-27.84
-32.02
-36.05
-39.45
-41.68
-42.27
-40.91
-37.64
-32.78
-26.97
-20.87
-15.03
-9.72
-4.92
-0.52
3.58
7.28
10.31
12.39
13.35
13.26
12.38
11.06
9.64
8.29
7.08
5.95
4.81
3.53
2.04
0.28
-1.66
-3.58
-5.12
-5.89
-5.53
-3.91
-1.13
2.47
6.40
10.16
13.33
15.62
16.96
17.41
17.16
16.42
15.37
14.14
12.82
11.47
10.18
9.03
8.13
7.55
7.32
7.42
7.77
8.28
8.81
9.26
9.48
9.41
8.98
8.23
7.20
6.01
4.76
3.60
2.66
1.99
1.59
1.32
1.00
0.47
-0.32
-1.30
-2.30
-3.16
-3.84
-4.38
-4.92
-5.59
-6.41
-7.31
-8.20
-9.04
-9.89
-10.86
-12.05
-13.37
-14.60
-15.34
-15.21
-13.97
-11.64
-8.44
-4.71
-0.87
2.76
5.91
8.38
10.06
10.92
11.05
10.61
9.83
8.95
8.16
7.62
7.40
7.54
8.00
8.67
9.40
10.05
10.49
10.71
10.74
10.64
10.47
10.27
10.03
9.72
9.28
8.68
7.94
7.12
6.35
5.76
5.41
5.28
5.22
5.07
4.68
4.02
3.16
2.27
1.52
1.02
0.74
0.60
0.43
0.06
-0.60
-1.58
-2.74
-3.94
-5.02
-5.91
-6.62
-7.25
-7.86
-8.55
-9.36
-10.37
-11.63
-13.09
-14.54
-15.53
-15.54
-14.08
-10.98
-6.42
-0.95
4.71
9.90
14.12
17.13
18.89
19.53
19.24
18.23
16.67
14.65
12.15
9.05
5.21
0.56
-4.76
-10.40
-15.85
-20.59
-24.12
-26.17
-26.64
-25.62
-23.40
-20.32
-16.75
-12.99
-9.23
-5.59
-2.10
1.21
4.29
6.96
9.04
10.36
10.90
10.75
10.18
9.49
8.92
8.58
8.40
8.23
7.93
7.46
6.85
6.20
5.58
4.96
4.32
3.60
2.80
1.90
0.89
-0.30
-1.69
-3.20
-4.59
-5.58
-5.91
-5.51
-4.54
-3.30
-2.09
-1.10
-0.39
0.13
0.54
0.86
1.05
1.03
0.77
0.34
-0.08
-0.27
-0.08
0.53
1.45
2.47
3.41
4.16
4.70
5.11
5.49
5.86
6.19
6.36
6.29
5.93
5.30
4.49
3.63
2.84
2.17
1.59
1.01
0.33
-0.52
-1.53
-2.60
-3.64
-4.54
-5.26
-5.78
-6.08
-6.13
-5.94
-5.64
-5.44
-5.59
-6.28
-7.51
-9.07
-10.65
-11.93
-12.78
-13.27
-13.61
-14.11
-15.01
-16.42
-18.27
-20.34
-22.21
-23.36
-23.26
-21.52
-18.12
-13.38
-8.00
-2.79
1.52
4.55
6.26
6.95
7.04
6.92
6.79
6.71
6.61
6.41
6.10
5.75
5.46
5.34
5.41
5.68
6.10
6.67
7.38
8.17
8.93
9.49
9.65
9.32
8.55
7.49
6.37
5.39
4.65
4.16
3.85
3.60
3.29
2.78
2.05
1.13
0.16
-0.69
-1.34
-1.84
-2.34
-3.02
-3.99
-5.19
-6.46
-7.63
-8.62
-9.50
-10.45
-11.70
-13.36
-15.40
-17.60
-19.56
-20.82
-20.95
-19.72
-17.09
-13.27
-8.62
-3.60
1.27
5.51
8.78
10.92
11.97
12.18
11.86
11.32
10.75
10.23
9.80
9.47
9.29
9.30
9.48
9.76
10.04
10.24
10.31
10.26
10.13
9.94
9.70
9.37
8.94
8.43
7.85
7.25
6.64
5.99
5.25
4.33
3.23
1.97
0.67
-0.50
-1.44
-2.08
-2.51
-2.87
-3.32
-3.98
-4.88
-5.97
-7.15
-8.30
-9.37
-10.36
-11.35
-12.45
-13.82
-15.56
-17.72
-20.13
-22.42
-24.03
-24.34
-22.88
-19.53
-14.58
-8.69
-2.66
2.79
7.22
10.50
12.73
14.10
14.79
14.94
14.71
14.23
13.71
13.32
13.19
13.35
13.72
14.17
14.55
14.78
14.84
14.82
14.79
14.84
14.95
15.05
15.01
14.69
13.99
12.87
11.32
9.44
7.34
5.21
3.21
1.51
0.21
-0.74
-1.45
-2.13
-2.97
-4.09
-5.51
-7.11
-8.74
-10.24
-11.52
-12.56
-13.51
-14.53
-15.83
-17.55
-19.69
-22.02
-24.16
-25.57
-25.78
-24.46
-21.59
-17.42
-12.41
-7.07
-1.87
2.80
6.67
9.56
11.40
12.18
12.08
11.33
10.27
9.22
8.43
8.03
8.04
8.38
8.92
9.50
10.02
10.44
10.74
10.96
11.11
11.19
11.16
10.98
10.63
10.08
9.34
8.39
7.22
5.80
4.14
2.32
0.51
-1.09
-2.32
-3.13
-3.65
-4.14
-4.91
-6.14
-7.86
-9.84
-11.78
-13.37
-14.45
-15.10
-15.59
-16.30
-17.59
-19.60
-22.23
-25.08
-27.55
-28.97
-28.79
-26.75
-22.90
-17.61
-11.48
-5.17
0.76
5.88
9.96
12.93
14.87
15.95
16.38
16.36
16.09
15.70
15.30
14.96
14.71
14.59
14.63
14.81
15.11
15.50
15.91
16.28
16.53
16.55
16.23
15.45
14.23
12.69
11.09
9.69
8.68
8.08
7.70
7.24
6.44
5.17
3.50
1.66
-0.07
-1.47
-2.46
-3.11
-3.61
-4.17
-4.95
-6.04
-7.43
-9.03
-10.69
-12.28
-13.71
-14.99
-16.23
-17.57
-19.16
-21.08
-23.28
-25.54
-27.43
-28.39
-27.85
-25.34
-20.78
-14.51
-7.28
-0.06
6.24
11.02
14.10
15.67
16.11
15.82
15.11
14.23
13.37
12.75
12.52
12.74
13.32
14.01
14.53
14.68
14.45
14.00
13.61
13.50
13.76
14.28
14.81
15.03
14.70
13.76
12.35
10.68
8.98
7.37
5.86
4.37
2.83
1.26
-0.25
-1.61
-2.72
-3.57
-4.26
-4.90
-5.62
-6.49
-7.57
-8.88
-10.44
-12.19
-14.05
-15.90
-17.65
-19.31
-20.97
-22.81
-24.92
-27.20
-29.30
-30.59
-30.43
-28.33
-24.22
-18.48
-11.84
-5.14
0.90
5.89
9.71
12.46
14.25
15.20
15.37
14.90
14.03
13.12
12.53
12.43
12.79
13.35
13.79
13.89
13.62
13.13
12.68
12.50
12.69
13.16
13.69
13.99
13.83
13.12
11.90
10.35
8.71
7.17
5.84
4.73
3.77
2.89
2.05
1.25
0.55
0.01
-0.35
-0.58
-0.81
-1.22
-1.96
-3.12
-4.60
-6.21
-7.68
-8.80
-9.49
-9.85
-10.10
-10.51
-11.28
-12.46
-13.94
-15.41
-16.42
-16.44
-14.99
-11.73
-6.60
0.17
8.08
16.56
25.07
33.24
40.90
47.98
54.40
59.98
64.35
67.02
67.44
65.28
60.49
53.49
45.11
36.33
28.08
20.90
14.93
9.95
5.68
1.96
-1.17
-3.57
-5.19
-6.13
-6.71
-7.20
-7.78
-8.41
-8.89
-8.99
-8.63
-7.89
-6.98
-6.14
-5.51
-5.12
-4.92
-4.85
-4.93
-5.29
-6.11
-7.47
-9.26
-11.13
-12.62
-13.35
-13.26
-12.65
-12.10
-12.24
-13.46
-15.80
-18.90
-22.18
-25.02
-26.89
-27.38
-26.29
-23.65
-19.77
-15.25
-10.87
-7.43
-5.54
-5.37
-6.59
-8.47
-10.06
-10.52
-9.37
-6.60
-2.69
1.62
5.62
8.75
10.82
11.89
12.25
12.28
12.43
13.05
14.36
16.34
18.69
20.94
22.67
23.70
24.19
24.53
25.16
26.23
27.53
28.53
28.59
27.18
24.09
19.37
13.27
6.11
-1.80
-10.09
-18.35
-26.05
-32.73
-37.99
-41.75
-44.13
-45.46
-46.09
-46.25
-46.02
-45.36
-44.25
-42.75
-41.01
-39.30
-37.84
-36.79
-36.21
-36.05
-36.17
-36.39
-36.49
-36.32
-35.76
-34.83
-33.65
-32.42
-31.34
-30.53
-29.94
-29.33
-28.36
-26.66
-24.00
-20.36
-15.90
-10.95
-5.84
-0.86
3.86
8.23
12.23
15.82
18.95
21.58
23.73
25.52
27.15
28.77
30.46
32.10
33.47
34.33
34.51
34.06
33.21
32.23
31.36
30.70
30.23
29.81
29.33
28.72
27.93
26.95
25.78
24.46
23.09
21.78
20.60
19.49
18.29
16.73
14.58
11.68
8.06
3.93
-0.42
-4.69
-8.62
-12.11
-15.13
-17.76
-20.12
-22.31
-24.40
-26.38
-28.15
-29.54
-30.33
-30.33
-29.45
-27.76
-25.42
-22.67
-19.81
-17.07
-14.68
-12.83
-11.66
-11.24
-11.49
-12.22
-13.15
-14.00
-14.58
-14.83
-14.81
-14.65
-14.52
-14.52
-14.69
-15.01
-15.37
-15.62
-15.56
-15.00
-13.78
-11.79
-9.05
-5.66
-1.86
2.06
5.80
9.10
11.78
13.79
15.15
15.95
16.30
16.31
16.07
15.69
15.22
14.71
14.17
13.63
13.08
12.57
12.13
11.81
11.58
11.32
10.89
10.13
8.96
7.37
5.43
3.26
0.97
-1.28
-3.32
-4.97
-6.11
-6.75
-7.05
-7.22
-7.39
-7.59
-7.65
-7.37
-6.61
-5.41
-3.95
-2.45
-1.14
-0.12
0.61
1.13
1.60
2.17
2.99
4.08
5.39
6.76
7.98
8.90
9.45
9.64
9.50
9.07
8.35
7.35
6.13
4.77
3.37
1.99
0.61
-0.82
-2.38
-4.05
-5.77
-7.42
-8.87
-10.04
-10.91
-11.50
-11.86
-12.05
-12.13
-12.16
-12.13
-12.00
-11.73
-11.31
-10.87
-10.64
-10.87
-11.77
-13.29
-15.17
-16.97
-18.15
-18.29
-17.11
-14.55
-10.78
-6.16
-1.16
3.66
7.82
10.98
13.09
14.26
14.74
14.76
14.50
14.00
13.27
12.33
11.26
10.20
9.29
8.69
8.47
8.67
9.22
10.02
10.89
11.65
12.14
12.24
11.93
11.28
10.42
9.53
8.75
8.12
7.59
6.98
6.09
4.78
3.04
1.05
-0.90
-2.52
-3.60
-4.10
-4.22
-4.21
-4.33
-4.73
-5.41
-6.27
-7.16
-8.02
-8.86
-9.79
-10.95
-12.44
-14.24
-16.22
-18.03
-19.20
-19.25
-17.80
-14.75
-10.35
-5.11
0.32
5.33
9.48
12.56
14.57
15.62
15.88
15.51
14.69
13.61
12.45
11.38
10.49
9.80
9.30
8.95
8.76
8.73
8.90
9.20
9.51
9.67
9.56
9.13
8.46
7.64
6.71
5.67
4.47
3.07
1.55
0.02
-1.38
-2.62
-3.73
-4.84
-6.02
-7.23
-8.40
-9.38
-10.11
-10.58
-10.90
-11.23
-11.77
-12.67
-14.04
-15.90
-18.14
-20.48
-22.46
-23.51
-23.09
-20.85
-16.79
-11.26
-4.98
1.25
6.75
11.11
14.23
16.22
17.24
17.44
16.86
15.60
13.86
11.98
10.36
9.38
9.16
9.61
10.45
11.35
12.08
12.56
12.85
13.05
13.21
13.32
13.28
12.98
12.37
11.46
10.31
9.01
7.65
6.30
5.02
3.89
2.96
2.24
1.67
1.09
0.33
-0.70
-1.96
-3.25
-4.39
-5.22
-5.77
-6.20
-6.71
-7.48
-8.53
-9.79
-11.12
-12.45
-13.75
-15.03
-16.30
-17.52
-18.72
-19.98
-21.45
-23.23
-25.21
-26.97
-27.84
-27.08
-24.18
-19.12
-12.41
-4.98
2.17
8.18
12.59
15.29
16.48
16.50
15.70
14.39
12.84
11.29
9.97
9.03
8.57
8.57
8.92
9.50
10.19
10.91
11.63
12.34
12.95
13.38
13.55
13.37
12.81
11.90
10.63
9.08
7.35
5.55
3.83
2.31
1.06
0.05
-0.78
-1.53
-2.27
-3.04
-3.88
-4.81
-5.84
-6.95
-8.07
-9.10
-9.94
-10.52
-10.88
-11.18
-11.66
-12.56
-14.08
-16.12
-18.34
-20.09
-20.57
-19.06
-15.18
-9.03
-1.20
7.38
15.75
23.13
29.09
33.51
36.52
38.35
39.24
39.45
39.29
39.07
39.04
39.28
39.61
39.61
38.76
36.61
32.94
27.87
21.75
15.05
8.18
1.40
-5.17
-11.43
-17.24
-22.28
-26.23
-28.83
-30.06
-30.17
-29.65
-29.01
-28.60
-28.50
-28.52
-28.32
-27.59
-26.22
-24.32
-22.21
-20.25
-18.77
-17.93
-17.67
-17.78
-17.99
-18.07
-17.93
-17.64
-17.34
-17.27
-17.66
-18.69
-20.43
-22.73
-25.13
-26.93
-27.31
-25.61
-21.54
-15.35
-7.76
0.24
7.72
13.99
18.69
21.80
23.48
23.99
23.58
22.51
21.00
19.27
17.52
15.93
14.67
13.84
13.48
13.58
13.99
14.54
15.08
15.44
15.54
15.31
14.70
13.69
12.28
10.55
8.67
6.80
5.11
3.64
2.36
1.17
-0.04
-1.35
-2.78
-4.32
-5.96
-7.63
-9.25
-10.70
-11.91
-12.85
-13.64
-14.48
-15.64
-17.38
-19.79
-22.77
-25.99
-28.88
-30.79
-31.03
-29.14
-24.95
-18.73
-11.12
-3.01
4.70
11.29
16.32
19.66
21.40
21.73
20.90
19.21
17.00
14.69
12.68
11.31
10.74
10.92
11.59
12.42
13.11
13.49
13.61
13.64
13.72
13.92
14.10
14.02
13.46
12.32
10.65
8.66
6.57
4.55
2.67
0.97
-0.55
-1.93
-3.21
-4.47
-5.86
-7.45
-9.24
-11.10
-12.83
-14.26
-15.35
-16.26
-17.27
-18.71
-20.79
-23.44
-26.28
-28.68
-29.85
-29.10
-26.03
-20.71
-13.62
-5.63
2.29
9.30
14.84
18.74
21.14
22.29
22.45
21.81
20.49
18.63
16.50
14.43
12.79
11.80
11.49
11.72
12.30
13.02
13.82
14.65
15.44
16.05
16.28
15.98
15.15
13.92
12.50
11.07
9.68
8.27
6.73
4.97
2.99
0.87
-1.29
-3.38
-5.33
-7.10
-8.69
-10.04
-11.16
-12.03
-12.68
-13.20
-13.75
-14.57
-15.88
-17.85
-20.53
-23.75
-27.11
-29.95
-31.53
-31.17
-28.51
-23.63
-17.10
-9.81
-2.68
3.57
8.57
12.29
14.85
16.40
17.03
16.77
15.70
14.04
12.13
10.37
9.09
8.47
8.49
9.00
9.79
10.69
11.57
12.39
13.10
13.62
13.82
13.58
12.81
11.51
9.79
7.75
5.50
3.12
0.69
-1.75
-4.16
-6.52
-8.85
-11.15
-13.39
-15.50
-17.37
-18.92
-20.20
-21.33
-22.52
-23.98
-25.84
-28.10
-30.66
-33.25
-35.43
-36.63
-36.21
-33.70
-28.93
-22.20
-14.18
-5.78
2.18
9.06
14.52
18.45
20.85
21.84
21.65
20.65
19.31
18.10
17.41
17.41
18.03
19.01
20.03
20.83
21.29
21.49
21.64
21.94
22.44
23.05
23.52
23.59
23.13
22.17
20.82
19.22
17.45
15.52
13.43
11.22
9.03
6.99
5.24
3.80
2.67
1.74
0.85
-0.18
-1.53
-3.28
-5.40
-7.73
-10.02
-12.04
-13.67
-14.90
-15.89
-16.87
-18.11
-19.87
-22.33
-25.52
-29.22
-32.86
-35.63
-36.63
-35.14
-30.92
-24.31
-16.17
-7.61
0.34
6.99
12.10
15.74
18.13
19.45
19.81
19.30
18.13
16.66
15.31
14.41
14.09
14.21
14.50
14.69
14.69
14.57
14.54
14.75
15.18
15.65
15.88
15.58
14.64
13.10
11.20
9.24
7.48
6.00
4.71
3.36
1.70
-0.41
-2.92
-5.60
-8.14
-10.28
-11.90
-13.07
-13.98
-14.89
-16.05
-17.70
-19.99
-22.88
-26.14
-29.23
-31.39
-31.80
-29.92
-25.65
-19.47
-12.24
-4.89
1.80
7.43
11.85
15.04
16.99
17.69
17.24
15.97
14.38
13.05
12.35
12.32
12.71
13.12
13.28
13.18
13.09
13.38
14.36
16.08
18.27
20.41
21.90
22.34
21.71
20.44
19.48
20.02
23.26
30.01
40.34
53.33
67.16
79.46
87.90
90.88
87.92
79.73
67.89
54.28
40.51
27.64
16.16
6.22
-2.15
-8.90
-13.96
-17.36
-19.28
-20.07
-20.11
-19.70
-18.94
-17.83
-16.28
-14.30
-12.01
-9.64
-7.45
-5.58
-4.05
-2.76
-1.52
-0.20
1.26
2.78
4.12
4.96
5.03
4.18
2.59
0.75
-0.65
-1.02
-0.18
1.47
3.05
3.54
2.22
-1.01
-5.55
-10.40
-14.45
-16.81
-16.95
-14.74
-10.46
-4.76
1.29
6.42
9.44
9.65
7.14
2.82
-1.82
-5.20
-6.18
-4.37
-0.26
5.00
9.99
13.39
14.37
12.81
9.29
4.96
1.20
-0.80
-0.37
2.38
6.65
11.20
14.77
16.53
16.23
14.17
10.87
6.81
2.22
-2.88
-8.50
-14.49
-20.55
-26.37
-31.78
-36.83
-41.70
-46.49
-51.02
-54.77
-57.11
-57.48
-55.72
-52.15
-47.45
-42.47
-37.90
-34.20
-31.50
-29.70
-28.58
-27.86
-27.26
-26.52
-25.44
-23.88
-21.87
-19.57
-17.24
-15.13
-13.43
-12.16
-11.19
-10.40
-9.64
-8.89
-8.17
-7.53
-7.00
-6.56
-6.16
-5.75
-5.29
-4.79
-4.26
-3.73
-3.27
-2.95
-2.89
-3.16
-3.79
-4.67
-5.68
-6.64
-7.46
-8.13
-8.67
-9.10
-9.41
-9.56
-9.48
-9.20
-8.78
-8.30
-7.77
-7.09
-6.07
-4.53
-2.43
0.13
2.90
5.62
8.17
10.50
12.67
14.72
16.61
18.22
19.42
20.13
20.38
20.26
19.88
19.27
18.39
17.12
15.40
13.19
10.56
7.67
4.71
1.90
-0.51
-2.31
-3.38
-3.71
-3.43
-2.78
-2.06
-1.48
-1.12
-0.91
-0.71
-0.41
-0.00
0.42
0.79
1.14
1.66
2.59
4.13
6.27
8.74
11.10
12.84
13.54
12.96
11.06
7.99
4.07
-0.25
-4.42
-7.93
-10.45
-11.89
-12.39
-12.18
-11.34
-9.76
-7.18
-3.46
1.20
6.14
10.44
13.23
14.10
13.21
11.21
8.83
6.60
4.68
2.87
0.87
-1.45
-3.97
-6.35
-8.20
-9.27
-9.59
-9.45
-9.30
-9.51
-10.27
-11.57
-13.26
-15.19
-17.22
-19.21
-20.85
-21.66
-21.03
-18.47
-13.93
-7.95
-1.58
3.93
7.61
9.00
8.29
6.09
3.10
-0.13
-3.37
-6.61
-9.99
-13.66
-17.74
-22.32
-27.46
-33.12
-39.01
-44.50
-48.63
-50.26
-48.44
-42.80
-33.69
-22.20
-9.83
1.95
12.08
20.10
26.05
30.27
33.22
35.28
36.77
37.95
39.02
40.06
41.00
41.59
41.48
40.30
37.77
33.73
28.21
21.39
13.52
4.88
-4.28
-13.67
-22.94
-31.49
-38.53
-43.15
-44.59
-42.49
-37.08
-29.13
-19.76
-10.14
-1.33
5.95
11.32
14.66
16.12
16.01
14.76
12.86
10.75
8.78
7.15
5.91
5.00
4.28
3.56
2.71
1.64
0.41
-0.85
-1.96
-2.78
-3.30
-3.66
-4.11
-4.90
-6.18
-7.89
-9.78
-11.42
-12.37
-12.25
-10.88
-8.28
-4.71
-0.58
3.59
7.33
10.33
12.46
13.75
14.37
14.45
14.08
13.32
12.26
11.05
9.89
9.01
8.56
8.53
8.81
9.19
9.51
9.67
9.66
9.56
9.44
9.33
9.23
9.04
8.69
8.12
7.32
6.32
5.22
4.10
3.05
2.07
1.19
0.40
-0.32
-1.00
-1.63
-2.25
-2.90
-3.57
-4.29
-5.04
-5.79
-6.51
-7.13
-7.62
-7.96
-8.22
-8.57
-9.23
-10.38
-12.05
-14.03
-15.87
-17.05
-17.13
-15.91
-13.47
-10.15
-6.39
-2.62
0.83
3.74
6.03
7.71
8.85
9.53
9.83
9.72
9.17
8.13
6.67
4.97
3.34
2.07
1.38
1.35
1.90
2.91
4.19
5.56
6.80
7.68
7.99
7.59
6.48
4.86
3.05
1.39
0.12
-0.68
-1.13
-1.45
-1.91
-2.70
-3.90
-5.46
-7.23
-8.99
-10.52
-11.62
-12.22
-12.34
-12.20
-12.10
-12.38
-13.27
-14.78
-16.60
-18.20
-18.91
-18.15
-15.69
-11.67
-6.64
-1.29
3.68
7.75
10.71
12.53
13.32
13.25
12.50
11.30
9.94
8.72
7.89
7.57
7.72
8.18
8.74
9.23
9.57
9.74
9.73
9.54
9.21
8.78
8.35
8.01
7.78
7.58
7.23
6.57
5.48
3.97
2.19
0.33
-1.38
-2.82
-3.94
-4.80
-5.47
-6.05
-6.63
-7.28
-8.04
-8.96
-10.04
-11.30
-12.72
-14.28
-15.94
-17.63
-19.24
-20.57
-21.37
-21.34
-20.23
-17.96
-14.57
-10.33
-5.59
-0.79
3.65
7.37
10.17
11.95
12.79
12.82
12.23
11.23
10.04
8.89
7.96
7.39
7.22
7.36
7.70
8.07
8.40
8.67
8.91
9.14
9.33
9.43
9.35
9.02
8.44
7.58
6.49
5.20
3.78
2.34
0.92
-0.45
-1.84
-3.33
-4.94
-6.63
-8.22
-9.55
-10.48
-11.03
-11.36
-11.70
-12.29
-13.34
-15.00
-17.29
-20.10
-23.07
-25.60
-26.94
-26.42
-23.71
-18.95
-12.80
-6.18
0.00
5.13
8.99
11.69
13.50
14.67
15.34
15.57
15.40
14.97
14.46
14.09
13.98
14.14
14.50
14.98
15.55
16.22
17.02
17.92
18.81
19.55
19.99
19.99
19.49
18.46
16.94
15.07
13.06
11.21
9.76
8.80
8.23
7.76
7.11
6.09
4.72
3.20
1.80
0.65
-0.23
-0.99
-1.82
-2.87
-4.16
-5.59
-7.03
-8.37
-9.58
-10.73
-11.93
-13.32
-14.99
-16.96
-19.18
-21.50
-23.64
-25.20
-25.68
-24.58
-21.55
-16.56
-9.97
-2.45
5.17
12.14
18.04
22.74
26.41
29.30
31.60
33.43
34.81
35.75
36.27
36.42
36.20
35.58
34.56
33.17
31.53
29.84
28.32
27.07
26.08
25.25
24.38
23.31
21.95
20.25
18.21
15.86
13.25
10.42
7.50
4.60
1.82
-0.79
-3.23
-5.60
-8.04
-10.66
-13.50
-16.53
-19.61
-22.55
-25.22
-27.52
-29.44
-31.07
-32.56
-34.10
-35.87
-37.97
-40.31
-42.55
-44.05
-44.10
-42.09
-37.84
-31.65
-24.30
-16.73
-9.77
-3.89
0.82
4.51
7.38
9.50
10.80
11.15
10.52
9.05
6.99
4.67
2.32
0.01
-2.20
-4.23
-5.84
-6.69
-6.39
-4.70
-1.54
2.99
8.73
15.46
22.93
30.71
38.13
44.31
48.35
49.56
47.71
43.08
36.40
28.57
20.47
12.80
6.02
0.39
-4.03
-7.33
-9.74
-11.61
-13.33
-15.29
-17.71
-20.59
-23.78
-26.98
-29.97
-32.68
-35.24
-37.86
-40.72
-43.79
-46.74
-49.01
-49.98
-49.17
-46.45
-42.04
-36.44
-30.25
-24.02
-18.08
-12.57
-7.44
-2.51
2.41
7.48
12.71
18.00
23.16
27.93
32.11
35.53
38.08
39.67
40.19
39.61
37.99
35.55
32.62
29.52
26.50
23.61
20.82
18.05
15.22
12.35
9.48
6.67
4.01
1.62
-0.41
-2.03
-3.30
-4.41
-5.58
-6.96
-8.54
-10.14
-11.53
-12.56
-13.24
-13.80
-14.56
-15.76
-17.54
-19.78
-22.19
-24.38
-26.04
-27.03
-27.46
-27.70
-28.21
-29.40
-31.54
-34.58
-38.16
-41.54
-43.72
-43.54
-40.04
-32.79
-22.16
-9.29
4.20
16.69
27.06
34.89
40.37
44.05
46.40
47.69
47.98
47.27
45.64
43.43
41.08
39.04
37.62
36.84
36.38
35.67
34.05
30.94
26.07
19.51
11.71
3.26
-5.21
-13.25
-20.62
-27.31
-33.41
-39.06
-44.38
-49.43
-54.08
-57.94
-60.31
-60.30
-57.14
-50.49
-40.67
-28.66
-15.78
-3.32
7.83
17.22
24.77
30.53
34.61
37.14
38.41
38.88
39.07
39.38
39.83
39.99
39.08
36.27
31.10
23.70
14.95
6.24
-0.83
-5.03
-5.83
-3.55
0.85
6.15
11.29
15.53
18.57
20.28
20.64
19.61
17.21
13.60
9.12
4.26
-0.52
-4.88
-8.69
-11.96
-14.85
-17.54
-20.20
-23.01
-26.07
-29.33
-32.64
-35.68
-38.00
-39.05
-38.34
-35.48
-30.37
-23.26
-14.72
-5.57
3.26
10.93
16.82
20.64
22.46
22.64
21.75
20.43
19.22
18.45
18.16
18.21
18.37
18.38
18.14
17.63
16.90
16.02
14.98
13.72
12.14
10.13
7.70
4.97
2.23
-0.13
-1.76
-2.46
-2.29
-1.53
-0.56
0.26
0.72
0.78
0.52
0.06
-0.53
-1.23
-2.06
-3.04
-4.11
-5.15
-6.02
-6.61
-6.89
-6.96
-6.99
-7.12
-7.40
-7.76
-8.10
-8.35
-8.57
-8.88
-9.40
-10.18
-11.16
-12.24
-13.33
-14.38
-15.39
-16.35
-17.28
-18.17
-19.09
-20.16
-21.50
-23.16
-25.07
-26.95
-28.42
-29.11
-28.77
-27.34
-25.01
-22.12
-19.08
-16.20
-13.67
-11.38
-9.07
-6.37
-3.00
1.13
5.87
10.87
15.64
19.73
22.79
24.64
25.31
24.96
23.85
22.30
20.55
18.81
17.16
15.63
14.23
13.03
12.09
11.44
11.08
10.93
10.89
10.87
10.79
10.62
10.33
9.88
9.18
8.19
6.90
5.41
3.88
2.54
1.55
0.97
0.69
0.48
0.10
-0.64
-1.78
-3.14
-4.46
-5.44
-5.89
-5.83
-5.41
-4.93
-4.71
-4.95
-5.73
-6.92
-8.29
-9.54
-10.45
-10.95
-11.10
-11.10
-11.17
-11.51
-12.27
-13.46
-14.98
-16.55
-17.77
-18.17
-17.37
-15.18
-11.71
-7.35
-2.64
1.89
5.84
9.03
11.43
13.05
13.92
14.06
13.54
12.52
11.28
10.10
9.23
8.79
8.74
8.97
9.35
9.77
10.20
10.60
10.94
11.16
11.20
11.02
10.61
9.97
9.16
8.21
7.14
5.98
4.71
3.28
1.65
-0.17
-2.15
-4.22
-6.34
-8.48
-10.66
-12.87
-15.08
-17.19
-19.09
-20.68
-21.91
-22.77
-23.28
-23.50
-23.52
-23.52
-23.72
-24.32
-25.35
-26.57
-27.50
-27.51
-25.99
-22.63
-17.49
-11.00
-3.87
3.13
9.33
14.31
17.91
20.18
21.32
21.53
21.03
20.02
18.67
17.18
15.74
14.48
13.48
12.73
12.19
11.81
11.58
11.52
11.60
11.75
11.82
11.67
11.17
10.32
9.19
7.89
6.57
5.32
4.21
3.24
2.39
1.59
0.77
-0.11
-1.05
-2.00
-2.84
-3.46
-3.79
-3.87
-3.82
-3.81
-4.00
-4.46
-5.21
-6.16
-7.19
-8.20
-9.15
-10.01
-10.85
-11.73
-12.72
-13.92
-15.39
-17.13
-18.99
-20.66
-21.58
-21.17
-18.98
-14.94
-9.49
-3.43
2.29
6.93
10.19
12.13
13.07
13.35
13.15
12.56
11.63
10.53
9.44
8.55
7.92
7.46
7.06
6.66
6.32
6.23
6.51
7.18
8.04
8.81
9.21
9.10
8.52
7.64
6.69
5.87
5.24
4.81
4.47
4.17
3.82
3.39
2.84
2.13
1.28
0.32
-0.63
-1.46
-2.07
-2.44
-2.60
-2.68
-2.84
-3.21
-3.91
-5.00
-6.43
-8.14
-9.93
-11.52
-12.53
-12.60
-11.46
-9.04
-5.55
-1.42
2.79
6.53
9.42
11.29
12.19
12.24
11.64
10.59
9.28
7.95
6.84
6.08
5.73
5.70
5.84
6.00
6.11
6.19
6.29
6.47
6.75
7.12
7.53
7.91
8.18
8.19
7.82
6.99
5.75
4.34
3.02
2.05
1.50
1.27
1.12
0.83
0.32
-0.37
-1.09
-1.72
-2.24
-2.73
-3.32
-4.09
-5.00
-5.95
-6.84
-7.60
-8.25
-8.88
-9.56
-10.39
-11.40
-12.66
-14.21
-16.06
-18.13
-20.20
-21.88
-22.67
-22.11
-19.94
-16.19
-11.22
-5.64
-0.14
4.65
8.35
10.79
12.06
12.41
12.14
11.50
10.72
9.94
9.22
8.62
8.19
7.97
8.00
8.25
8.66
9.15
9.63
10.05
10.36
10.56
10.60
10.49
10.20
9.75
9.12
8.30
7.24
5.88
4.25
2.47
0.75
-0.69
-1.71
-2.31
-2.67
-3.02
-3.58
-4.47
-5.64
-6.96
-8.24
-9.32
-10.17
-10.80
-11.31
-11.82
-12.44
-13.25
-14.34
-15.76
-17.43
-19.10
-20.38
-20.74
-19.73
-17.15
-13.14
-8.19
-2.97
1.84
5.81
8.79
10.85
12.20
12.99
13.30
13.15
12.59
11.74
10.81
10.06
9.69
9.74
10.16
10.80
11.55
12.31
13.07
13.79
14.45
15.00
15.41
15.67
15.77
15.68
15.40
14.91
14.29
13.64
13.10
12.77
12.69
12.84
13.17
13.60
14.11
14.64
15.18
15.69
16.18
16.71
17.32
18.04
18.74
19.20
19.09
18.05
15.82
12.25
7.43
1.56
-4.96
-11.75
-18.48
-24.99
-31.30
-37.51
-43.70
-49.77
-55.30
-59.61
-61.91
-61.53
-58.12
-51.84
-43.27
-33.30
-22.96
-13.21
-4.81
1.70
6.09
8.41
9.04
8.56
7.65
6.87
6.54
6.76
7.39
8.24
9.14
9.98
10.67
11.18
11.49
11.61
11.63
11.65
11.68
11.69
11.58
11.21
10.55
9.63
8.54
7.38
6.24
5.15
4.16
3.29
2.56
1.97
1.47
1.00
0.50
-0.10
-0.81
-1.62
-2.50
-3.40
-4.28
-5.14
-6.06
-7.16
-8.60
-10.51
-12.96
-15.91
-19.15
-22.36
-25.16
-27.13
-28.00
-27.63
-26.13
-23.72
-20.71
-17.40
-13.99
-10.62
-7.35
-4.28
-1.48
0.94
2.92
4.51
5.89
7.37
9.25
11.75
14.87
18.38
21.89
25.01
27.47
29.14
30.03
30.20
29.67
28.47
26.65
24.35
21.80
19.29
17.07
15.23
13.74
12.40
10.96
9.25
7.22
5.00
2.82
0.91
-0.57
-1.65
-2.50
-3.36
-4.42
-5.81
-7.53
-9.45
-11.43
-13.29
-14.87
-16.11
-17.03
-17.79
-18.62
-19.77
-21.37
-23.30
-25.16
-26.30
-26.02
-23.80
-19.51
-13.49
-6.41
0.84
7.48
13.00
17.16
20.00
21.67
22.29
22.00
20.87
19.06
16.84
14.53
12.54
11.18
10.64
10.92
11.81
13.05
14.35
15.47
16.29
16.72
16.58
15.62
13.50
9.87
4.58
-2.21
-10.07
-18.32
-26.17
-32.90
-37.89
-40.69
-41.03
-38.90
-34.55
-28.54
-21.58
-14.48
-7.93
-2.50
1.45
3.68
4.04
2.50
-0.87
-5.76
-11.65
-17.80
-23.37
-27.58
-29.96
-30.37
-29.01
-26.29
-22.64
-18.39
-13.74
-8.83
-3.78
1.25
6.06
10.54
14.64
18.36
21.76
24.86
27.72
30.40
32.97
35.43
37.62
39.24
39.92
39.34
37.39
34.25
30.35
26.22
22.32
18.94
16.10
13.64
11.31
8.86
6.17
3.23
0.14
-2.94
-5.88
-8.57
-10.97
-13.07
-14.91
-16.55
-18.11
-19.72
-21.52
-23.57
-25.85
-28.23
-30.57
-32.81
-35.02
-37.41
-40.26
-43.79
-48.02
-52.73
-57.40
-61.25
-63.47
-63.37
-60.59
-55.25
-47.93
-39.51
-31.02
-23.40
-17.32
-13.17
-10.95
-10.39
-10.96
-12.01
-12.93
-13.21
-12.62
-11.09
-8.71
-5.64
-2.01
2.04
6.36
10.73
14.88
18.55
21.51
23.65
25.02
25.79
26.19
26.52
27.00
27.80
29.01
30.67
32.80
35.40
38.45
41.94
45.87
50.19
54.79
59.39
63.56
66.79
68.66
68.95
67.70
65.18
61.74
57.71
53.28
48.51
43.34
37.69
31.50
24.88
18.17
11.90
6.67
2.93
0.78
-0.08
-0.27
-0.52
-1.39
-3.20
-5.97
-9.52
-13.56
-17.74
-21.71
-25.21
-28.06
-30.31
-32.12
-33.81
-35.64
-37.71
-39.98
-42.21
-44.09
-45.32
-45.66
-45.03
-43.47
-41.13
-38.28
-35.22
-32.22
-29.52
-27.22
-25.32
-23.72
-22.25
-20.81
-19.35
-17.88
-16.41
-14.89
-13.21
-11.22
-8.81
-5.97
-2.82
0.42
3.50
6.25
8.57
10.50
12.13
13.53
14.71
15.58
16.00
15.83
14.98
13.44
11.33
8.80
6.02
3.25
0.80
-0.96
-1.63
-0.93
1.20
4.49
8.46
12.48
16.02
18.78
20.72
22.01
22.84
23.35
23.56
23.38
22.72
21.60
20.14
18.57
17.14
16.02
15.28
14.90
14.81
14.93
15.20
15.57
15.94
16.21
16.23
15.87
15.11
14.00
12.67
11.32
10.05
8.89
7.74
6.44
4.87
3.06
1.20
-0.44
-1.61
-2.25
-2.51
-2.69
-3.08
-3.82
-4.87
-6.08
-7.31
-8.52
-9.78
-11.15
-12.63
-14.08
-15.38
-16.45
-17.32
-18.06
-18.59
-18.65
-17.83
-15.79
-12.42
-8.01
-3.13
1.56
5.54
8.57
10.63
11.86
12.39
12.34
11.76
10.78
9.55
8.27
7.15
6.34
5.90
5.82
6.03
6.42
6.89
7.38
7.90
8.46
9.10
9.82
10.58
11.25
11.72
11.88
11.72
11.34
10.89
10.53
10.32
10.22
10.08
9.74
9.14
8.33
7.47
6.73
6.18
5.74
5.27
4.63
3.74
2.64
1.42
0.15
-1.14
-2.42
-3.67
-4.86
-5.94
-6.91
-7.82
-8.69
-9.47
-9.94
-9.81
-8.86
-7.03
-4.51
-1.65
1.17
3.67
5.73
7.30
8.39
8.93
8.89
8.29
7.23
5.95
4.71
3.74
3.16
2.95
2.99
3.13
3.18
3.03
2.61
1.94
1.08
0.14
-0.73
-1.40
-1.81
-1.99
-2.03
-2.09
-2.34
-2.86
-3.69
-4.77
-6.02
-7.29
-8.45
-9.39
-10.07
-10.55
-10.94
-11.44
-12.18
-13.13
-14.15
-14.91
-15.05
-14.29
-12.47
-9.67
-6.19
-2.48
0.98
3.81
5.83
7.05
7.67
7.86
7.75
7.37
6.72
5.86
4.90
4.05
3.49
3.31
3.48
3.91
4.45
4.98
5.41
5.70
5.84
5.89
5.86
5.76
5.57
5.24
4.70
3.98
3.12
2.21
1.33
0.52
-0.20
-0.83
-1.34
-1.67
-1.74
-1.52
-1.04
-0.43
0.16
0.56
0.69
0.57
0.33
0.14
0.13
0.32
0.59
0.77
0.69
0.33
-0.16
-0.52
-0.40
0.51
2.38
5.24
8.88
12.93
16.82
19.98
21.89
22.28
21.15
18.78
15.64
12.24
9.00
6.16
3.79
1.80
0.05
-1.61
-3.21
-4.68
-5.91
-6.76
-7.19
-7.27
-7.16
-7.07
-7.13
-7.41
-7.87
-8.48
-9.18
-9.93
-10.67
-11.32
-11.81
-12.13
-12.36
-12.67
-13.19
-13.96
-14.88
-15.69
-16.12
-16.05
-15.58
-15.02
-14.73
-14.94
-15.62
-16.53
-17.25
-17.39
-16.72
-15.19
-12.91
-10.05
-6.90
-3.73
-0.86
1.46
3.09
4.02
4.40
4.40
4.17
3.81
3.35
2.84
2.37
2.03
1.87
1.87
1.96
2.04
2.06
2.05
2.07
2.16
2.28
2.34
2.28
2.03
1.61
1.09
0.51
-0.09
-0.70
-1.34
-2.04
-2.77
-3.50
-4.17
-4.74
-5.20
-5.61
-6.08
-6.71
-7.52
-8.44
-9.36
-10.16
-10.81
-11.39
-12.05
-12.93
-14.07
-15.36
-16.57
-17.39
-17.51
-16.73
-14.97
-12.31
-9.01
-5.37
-1.73
1.57
4.31
6.30
7.47
7.82
7.45
6.59
5.51
4.53
3.85
3.59
3.72
4.12
4.64
5.14
5.54
5.80
5.93
5.90
5.73
5.39
4.88
4.24
3.53
2.81
2.17
1.62
1.15
0.68
0.09
-0.73
-1.84
-3.21
-4.72
-6.16
-7.31
-8.02
-8.29
-8.28
-8.28
-8.61
-9.47
-10.88
-12.63
-14.30
-15.43
-15.59
-14.56
-12.31
-9.06
-5.21
-1.27
2.30
5.14
7.09
8.21
8.66
8.64
8.30
7.78
7.18
6.59
6.15
5.91
5.90
6.06
6.31
6.57
6.77
6.92
7.00
7.05
7.09
7.13
7.15
7.07
6.80
6.25
5.40
4.37
3.36
2.53
1.97
1.60
1.27
0.83
0.22
-0.49
-1.14
-1.59
-1.83
-1.93
-2.06
-2.36
-2.88
-3.56
-4.28
-4.95
-5.56
-6.17
-6.86
-7.68
-8.59
-9.48
-10.23
-10.82
-11.28
-11.74
-12.34
-13.17
-14.27
-15.56
-16.91
-18.06
-18.69
-18.43
-17.01
-14.32
-10.50
-5.99
-1.37
2.74
5.89
7.90
8.81
8.82
8.21
7.23
6.12
5.07
4.25
3.76
3.58
3.58
3.56
3.31
2.77
1.96
1.05
0.21
-0.41
-0.80
-1.00
-1.16
-1.48
-2.16
-3.34
-5.03
-7.03
-8.95
-10.29
-10.68
-9.94
-8.22
-5.86
-3.26
-0.67
1.80
4.16
6.46
8.67
10.68
12.36
13.57
14.19
14.09
13.18
11.43
8.98
6.19
3.57
1.65
0.85
1.30
2.82
5.01
7.36
9.41
10.88
11.67
11.82
11.45
10.68
9.65
8.50
7.36
6.37
5.60
5.03
4.61
4.27
3.97
3.79
3.80
4.07
4.57
5.19
5.76
6.15
6.24
6.00
5.48
4.74
3.88
2.99
2.16
1.36
0.57
-0.29
-1.23
-2.20
-3.13
-3.95
-4.65
-5.26
-5.87
-6.52
-7.21
-7.93
-8.65
-9.35
-10.02
-10.63
-11.15
-11.60
-12.07
-12.70
-13.68
-15.08
-16.80
-18.47
-19.59
-19.63
-18.23
-15.31
-11.16
-6.30
-1.36
3.08
6.66
9.21
10.77
11.45
11.45
10.99
10.31
9.63
9.11
8.77
8.52
8.21
7.79
7.30
6.89
6.70
6.78
7.04
7.36
7.60
7.68
7.55
7.18
6.50
5.46
4.11
2.58
1.11
-0.10
-0.97
-1.59
-2.17
-2.91
-3.90
-5.08
-6.21
-7.07
-7.50
-7.53
-7.34
-7.24
-7.51
-8.33
-9.72
-11.49
-13.32
-14.76
-15.37
-14.82
-12.94
-9.84
-5.85
-1.46
2.75
6.29
8.82
10.26
10.75
10.60
10.13
9.56
8.98
8.38
7.69
6.92
6.17
5.58
5.27
5.28
5.55
5.98
6.45
6.87
7.15
7.23
7.05
6.62
5.97
5.18
4.29
3.33
2.27
1.12
-0.09
-1.25
-2.24
-3.02
-3.63
-4.21
-4.93
-5.86
-6.95
-8.06
-9.01
-9.66
-10.02
-10.23
-10.52
-11.12
-12.19
-13.74
-15.59
-17.42
-18.78
-19.27
-18.56
-16.49
-13.14
-8.82
-4.02
0.68
4.77
7.92
10.01
11.20
11.73
11.87
11.77
11.47
10.97
10.26
9.37
8.42
7.52
6.76
6.22
5.91
5.79
5.79
5.83
5.83
5.76
5.59
5.29
4.79
4.04
3.01
1.74
0.32
-1.10
-2.49
-3.85
-5.28
-6.85
-8.55
-10.26
-11.83
-13.14
-14.17
-15.05
-15.95
-17.05
-18.48
-20.29
-22.48
-24.94
-27.53
-30.02
-32.14
-33.67
-34.46
-34.42
-33.55
-31.92
-29.68
-27.10
-24.53
-22.37
-21.01
-20.76
-21.81
-24.15
-27.59
-31.59
-35.18
-37.05
-35.77
-30.18
-19.87
-5.38
11.88
30.01
47.17
61.98
73.70
82.18
87.54
90.06
90.03
87.78
83.67
78.05
71.26
63.55
55.17
46.41
37.66
29.36
21.88
15.40
9.91
5.24
1.24
-2.14
-4.86
-6.81
-8.01
-8.61
-8.87
-9.09
-9.49
-10.17
-11.16
-12.43
-13.84
-15.13
-15.93
-15.80
-14.46
-11.86
-8.36
-4.54
-1.09
1.48
2.89
3.19
2.67
1.66
0.48
-0.67
-1.71
-2.66
-3.58
-4.46
-5.27
-5.93
-6.35
-6.46
-6.28
-5.81
-5.11
-4.20
-3.15
-2.12
-1.34
-1.09
-1.58
-2.81
-4.57
-6.51
-8.26
-9.62
-10.64
-11.59
-12.79
-14.47
-16.63
-19.06
-21.40
-23.36
-24.79
-25.84
-26.82
-28.11
-29.96
-32.35
-34.95
-37.16
-38.22
-37.33
-33.90
-27.66
-18.81
-8.04
3.56
14.73
24.33
31.61
36.30
38.56
38.81
37.58
35.33
32.53
29.61
26.94
24.80
23.25
22.15
21.25
20.29
19.12
17.73
16.22
14.71
13.28
11.93
10.56
9.07
7.35
5.40
3.31
1.27
-0.55
-2.04
-3.19
-4.11
-4.96
-5.90
-7.00
-8.28
-9.68
-11.16
-12.64
-14.12
-15.50
-16.62
-17.15
-16.73
-15.05
-12.03
-7.95
-3.40
0.94
4.49
7.01
8.57
9.46
9.94
10.12
10.01
9.51
8.66
7.60
6.57
5.78
5.37
5.30
5.42
5.56
5.60
5.51
5.36
5.25
5.21
5.16
4.93
4.31
3.21
1.70
0.02
-1.51
-2.72
-3.57
-4.24
-4.92
-5.75
-6.72
-7.69
-8.47
-8.94
-9.10
-9.04
-8.94
-8.97
-9.32
-10.15
-11.51
-13.31
-15.20
-16.68
-17.17
-16.22
-13.71
-9.90
-5.34
-0.70
3.44
6.75
9.16
10.80
11.88
12.55
12.88
12.82
12.30
11.33
10.05
8.73
7.71
7.23
7.32
7.81
8.40
8.80
8.89
8.72
8.47
8.28
8.22
8.22
8.14
7.84
7.26
6.38
5.29
4.12
3.05
2.24
1.75
1.54
1.44
1.19
0.60
-0.40
-1.74
-3.24
-4.70
-6.04
-7.27
-8.54
-9.99
-11.73
-13.75
-15.90
-17.85
-19.14
-19.28
-17.92
-15.01
-10.82
-5.94
-1.04
3.29
6.67
8.99
10.29
10.73
10.49
9.77
8.79
7.79
6.98
6.51
6.42
6.65
7.10
7.63
8.09
8.40
8.52
8.46
8.31
8.13
7.94
7.70
7.28
6.57
5.58
4.38
3.15
2.03
1.08
0.26
-0.54
-1.44
-2.47
-3.57
-4.62
-5.52
-6.23
-6.83
-7.50
-8.42
-9.77
-11.56
-13.65
-15.75
-17.43
-18.23
-17.74
-15.76
-12.35
-7.85
-2.82
2.09
6.31
9.45
11.34
12.05
11.80
10.89
9.63
8.31
7.18
6.44
6.23
6.55
7.33
8.36
9.45
10.42
11.25
12.03
12.89
13.91
15.00
15.95
16.48
16.42
15.75
14.68
13.50
12.44
11.60
10.92
10.27
9.51
8.53
7.35
5.98
4.47
2.82
0.95
-1.25
-3.93
-7.22
-11.14
-15.58
-20.26
-24.78
-28.69
-31.70
-33.69
-34.79
-35.32
-35.65
-36.17
-37.22
-39.06
-41.78
-45.22
-48.81
-51.64
-52.63
-50.90
-46.11
-38.60
-29.25
-19.11
-9.13
0.17
8.57
16.07
22.59
27.99
32.10
34.79
36.12
36.29
35.56
34.16
32.26
29.97
27.36
24.49
21.48
18.47
15.66
13.26
11.42
10.17
9.33
8.59
7.61
6.14
4.13
1.79
-0.58
-2.71
-4.47
-5.93
-7.28
-8.80
-10.69
-13.05
-15.85
-18.85
-21.65
-23.74
-24.58
-23.79
-21.27
-17.23
-12.19
-6.81
-1.72
2.60
5.93
8.28
9.81
10.77
11.30
11.48
11.32
10.86
10.24
9.69
9.45
9.64
10.25
11.07
11.89
12.54
12.99
13.25
13.39
13.39
13.20
12.76
12.02
11.00
9.74
8.26
6.61
4.82
2.98
1.20
-0.42
-1.80
-2.93
-3.85
-4.66
-5.53
-6.62
-8.13
-10.17
-12.69
-15.46
-18.01
-19.81
-20.39
-19.47
-17.04
-13.40
-9.01
-4.37
0.12
4.16
7.56
10.23
12.08
13.04
13.12
12.42
11.17
9.74
8.47
7.66
7.41
7.72
8.41
9.30
10.24
11.13
11.91
12.53
12.96
13.13
13.01
12.58
11.84
10.84
9.67
8.36
6.94
5.37
3.57
1.49
-0.82
-3.24
-5.59
-7.75
-9.70
-11.53
-13.34
-15.18
-17.00
-18.70
-20.24
-21.76
-23.46
-25.55
-28.01
-30.58
-32.74
-33.89
-33.51
-31.30
-27.25
-21.62
-14.86
-7.56
-0.37
6.11
11.42
15.33
17.80
19.00
19.16
18.54
17.39
15.96
14.52
13.29
12.45
12.06
12.04
12.26
12.56
12.84
13.06
13.27
13.48
13.68
13.83
13.87
13.77
13.57
13.30
13.06
12.92
12.98
13.34
14.09
15.30
16.89
18.69
20.40
21.72
22.46
22.66
22.56
22.56
22.97
23.95
25.33
26.75
27.73
27.90
27.11
25.56
23.69
22.08
21.26
21.51
22.82
24.88
27.22
29.35
30.96
31.93
32.31
32.20
31.71
30.86
29.61
27.91
25.70
22.92
19.47
15.18
9.91
3.62
-3.52
-11.04
-18.32
-24.69
-29.65
-32.96
-34.66
-34.97
-34.23
-32.78
-30.94
-28.98
-27.07
-25.24
-23.39
-21.33
-18.91
-16.15
-13.18
-10.20
-7.37
-4.72
-2.22
0.18
2.36
4.10
5.10
5.11
4.00
1.79
-1.45
-5.62
-10.61
-16.28
-22.34
-28.37
-33.85
-38.25
-41.20
-42.51
-42.25
-40.67
-38.12
-34.97
-31.52
-27.98
-24.51
-21.20
-18.15
-15.46
-13.19
-11.34
-9.83
-8.55
-7.36
-6.16
-4.89
-3.60
-2.35
-1.26
-0.40
0.21
0.62
0.94
1.26
1.60
1.89
1.99
1.80
1.32
0.68
0.03
-0.57
-1.17
-1.88
-2.75
-3.70
-4.52
-5.00
-5.06
-4.81
-4.50
-4.41
-4.70
-5.39
-6.37
-7.42
-8.33
-8.81
-8.63
-7.58
-5.59
-2.78
0.54
3.97
7.13
9.79
11.85
13.36
14.39
14.98
15.08
14.65
13.65
12.20
10.53
8.93
7.69
7.01
6.95
7.43
8.26
9.18
9.97
10.48
10.65
10.52
10.11
9.43
8.42
7.05
5.35
3.47
1.64
0.10
-1.03
-1.82
-2.45
-3.13
-4.00
-5.08
-6.29
-7.55
-8.79
-9.98
-11.10
-12.15
-13.14
-14.16
-15.35
-16.83
-18.64
-20.58
-22.22
-23.00
-22.40
-20.13
-16.29
-11.30
-5.80
-0.48
4.12
7.68
10.11
11.44
11.77
11.24
10.04
8.41
6.65
5.07
3.89
3.17
2.84
2.72
2.65
2.57
2.52
2.63
3.04
3.77
4.68
5.52
5.99
5.86
5.09
3.79
2.19
0.57
-0.96
-2.40
-3.86
-5.51
-7.41
-9.53
-11.77
-13.98
-16.05
-17.95
-19.66
-21.24
-22.76
-24.35
-26.15
-28.28
-30.72
-33.24
-35.41
-36.66
-36.42
-34.35
-30.45
-25.02
-18.64
-11.95
-5.57
0.02
4.48
7.65
9.56
10.37
10.39
9.97
9.38
8.78
8.21
7.67
7.20
6.91
6.92
7.28
7.95
8.72
9.38
9.73
9.70
9.27
8.51
7.46
6.09
4.39
2.34
0.00
-2.46
-4.86
-7.05
-9.00
-10.79
-12.61
-14.60
-16.82
-19.26
-21.82
-24.39
-26.82
-28.91
-30.30
-30.51
-29.05
-25.58
-20.12
-13.12
-5.41
2.11
8.64
13.78
17.52
20.09
21.78
22.77
23.14
22.95
22.32
21.55
21.00
20.95
21.49
22.49
23.69
24.87
25.91
26.82
27.68
28.55
29.38
30.07
30.46
30.45
30.03
29.28
28.33
27.28
26.19
25.05
23.88
22.76
21.83
21.21
20.93
20.83
20.61
19.89
18.44
16.26
13.66
11.20
9.58
9.38
10.97
14.35
19.21
24.88
30.61
35.64
39.42
41.67
42.41
41.86
40.34
38.17
35.57
32.71
29.67
26.55
23.41
20.34
17.29
14.16
10.73
6.79
2.22
-2.98
-8.69
-14.77
-21.14
-27.72
-34.41
-40.96
-46.99
-52.03
-55.69
-57.76
-58.24
-57.32
-55.32
-52.54
-49.32
-46.00
-42.87
-40.11
-37.63
-35.15
-32.16
-28.17
-22.86
-16.26
-8.81
-1.16
5.96
11.96
16.58
19.88
22.06
23.39
24.08
24.22
23.88
23.18
22.33
21.59
21.14
21.05
21.15
21.12
20.58
19.22
16.86
13.57
9.56
5.11
0.47
-4.27
-9.12
-14.19
-19.49
-24.89
-30.02
-34.42
-37.65
-39.38
-39.54
-38.25
-35.87
-32.87
-29.75
-26.95
-24.71
-23.04
-21.73
-20.41
-18.71
-16.38
-13.35
-9.79
-6.04
-2.51
0.37
2.28
3.09
2.93
2.12
1.14
0.45
0.35
0.94
2.14
3.79
5.78
8.10
10.81
13.97
17.49
21.07
24.26
26.57
27.62
27.27
25.72
23.33
20.51
17.55
14.58
11.61
8.64
5.73
3.01
0.56
-1.63
-3.64
-5.59
-7.49
-9.31
-10.97
-12.47
-13.91
-15.48
-17.30
-19.29
-21.15
-22.37
-22.44
-21.03
-18.12
-14.02
-9.27
-4.49
-0.21
3.25
5.78
7.42
8.33
8.73
8.80
8.70
8.54
8.37
8.16
7.87
7.47
7.01
6.60
6.31
6.24
6.34
6.57
6.84
7.12
7.43
7.84
8.44
9.28
10.34
11.58
12.92
14.27
15.54
16.62
17.44
17.93
18.08
17.90
17.34
16.33
14.70
12.33
9.18
5.38
1.23
-2.92
-6.83
-10.38
-13.67
-16.87
-20.20
-23.73
-27.40
-30.93
-33.90
-35.80
-36.18
